TeamLoggerH10Data
[Header]
version=1.0
datetime=2026.08.09 15:07:34
polar_id=C8208E2E
[ECG]
839603254205334912:13148,12967,12788,12610,12433,12257,12083,11910,11738,11567,11398,11230,11063,10897,10732,10569,10407,10246,10087,9929,9771,9616,9461,9308,9155,9005,8855,8706,8559,8413,8269,8125,7983,7842,7702,7563,7426,7290,7155,7021,6889,7041,6939,6831,6717,6595,6465,6329,6185,6036,5880,5719,5554,5388,5219,5051,4938,4827,4717,4608,4500,4393,4288,4184,4081,3980,3879,3780,3682,3586,3490,3396,3303,
839603254766873373:3212,3121,3032,2944,2857,2772,2687,2604,2522,2442,2362,2284,2207,2132,2057,1984,1912,1841,1772,1704,1637,1571,1506,1443,1381,1320,1260,1202,1145,1089,1034,981,928,877,828,779,732,686,641,597,555,514,474,492,504,500,477,431,367,286,199,171,143,10,-58,-38,45,788,1240,1222,732,-48,-763,-1290,-1490,-1314,-812,-121,-129,-136,-141,-145,-148,
839603255328411834:-117,-136,-117,-139,-126,-69,-3,40,97,125,149,194,220,230,223,238,208,199,154,125,89,17,-16,-89,-148,-136,-150,-152,-137,-161,-158,-170,-146,-152,-165,-174,-162,-177,-171,-178,-201,-197,-199,-205,-212,-223,-225,-218,-208,-216,-219,-246,-227,-239,-250,-245,-251,-258,-252,-255,-267,-258,-259,-274,-258,-271,-278,-271,-290,-286,-283,-269,-283,
839603255889950295:-287,-274,-281,-272,-282,-280,-278,-289,-261,-285,-270,-279,-209,-172,-110,-95,-112,-146,-187,-249,-245,-244,-354,-386,-353,-221,539,1007,1018,566,-204,-908,-1400,-1598,-1419,-883,-171,-190,-165,-186,-170,-162,-160,-170,-144,-142,-137,-77,-43,26,54,103,163,168,190,211,238,210,204,177,156,117,81,53,-8,-58,-123,-136,-116,-128,-116,-127,-121,
839603256451488756:-135,-128,-142,-146,-127,-142,-130,-131,-138,-150,-167,-153,-155,-166,-174,-174,-165,-188,-195,-175,-189,-186,-190,-218,-203,-218,-226,-210,-229,-235,-245,-232,-245,-231,-255,-245,-262,-242,-257,-246,-263,-270,-253,-258,-284,-274,-284,-262,-274,-290,-273,-287,-291,-269,-230,-173,-135,-114,-124,-184,-210,-289,-263,-272,-380,-407,-359,-257,515,971,982,510,-247,
839603257013027217:-953,-1467,-1628,-1440,-945,-213,-231,-207,-225,-217,-215,-216,-211,-183,-189,-173,-140,-58,-8,18,68,122,161,180,200,186,183,179,162,155,122,57,31,-34,-79,-137,-111,-124,-107,-123,-127,-119,-127,-122,-106,-110,-113,-118,-120,-124,-132,-139,-131,-129,-134,-147,-137,-146,-128,-140,-144,-144,-154,-170,-147,-162,-162,-164,-182,-172,-166,-182,-196,
839603257574565678:-204,-193,-190,-198,-197,-225,-203,-235,-236,-219,-243,-239,-229,-239,-259,-234,-262,-249,-243,-247,-272,-280,-262,-217,-179,-127,-138,-143,-185,-232,-289,-281,-278,-389,-435,-397,-280,471,949,949,501,-289,-968,-1476,-1668,-1485,-961,-274,-248,-261,-240,-245,-262,-247,-252,-227,-223,-223,-172,-126,-60,-21,48,79,107,149,158,173,164,155,139,105,62,
839603258136104139:33,6,-37,-103,-157,-151,-144,-156,-141,-138,-142,-121,-142,-122,-118,-114,-136,-123,-114,-127,-117,-105,-116,-113,-120,-114,-120,-109,-136,-111,-124,-125,-117,-126,-143,-120,-129,-143,-129,-138,-143,-139,-159,-142,-146,-151,-178,-157,-173,-169,-192,-199,-192,-203,-193,-202,-207,-210,-201,-213,-215,-219,-244,-228,-237,-190,-140,-95,-90,-121,-155,-213,-269,
839603258697642600:-276,-254,-384,-411,-371,-288,500,969,946,477,-280,-976,-1486,-1672,-1489,-965,-294,-290,-266,-284,-280,-269,-286,-258,-274,-265,-278,-199,-143,-107,-38,1,49,59,93,97,111,104,111,83,71,47,2,-38,-85,-135,-205,-177,-184,-183,-168,-161,-166,-168,-162,-144,-168,-158,-159,-158,-144,-141,-139,-147,-132,-121,-136,-131,-134,-121,-121,-137,-135,
839603259259181061:-123,-121,-117,-125,-128,-122,-136,-129,-107,-111,-128,-134,-115,-130,-128,-123,-150,-137,-132,-143,-151,-139,-150,-167,-165,-176,-171,-173,-178,-174,-183,-188,-191,-189,-145,-102,-54,-54,-69,-112,-176,-228,-242,-247,-336,-389,-346,-237,508,982,981,507,-275,-953,-1474,-1679,-1484,-977,-282,-288,-277,-278,-287,-283,-294,-265,-276,-268,-292,-223,-163,-103,-70,
839603259820719522:-41,24,53,63,86,75,83,68,51,16,-9,-33,-74,-124,-177,-247,-229,-241,-223,-214,-213,-196,-218,-191,-195,-194,-205,-201,-182,-175,-183,-187,-155,-170,-159,-170,-157,-157,-146,-154,-156,-154,-126,-140,-146,-118,-138,-132,-120,-126,-117,-115,-136,-112,-130,-129,-135,-123,-120,-115,-127,-128,-125,-133,-116,-139,-128,-120,-141,-152,-133,-145,-148,
839603260382257983:-155,-163,-156,-90,-69,-17,-8,-43,-57,-109,-170,-194,-181,-317,-360,-305,-218,545,1015,1010,555,-231,-938,-1457,-1654,-1453,-940,-244,-263,-261,-257,-257,-270,-258,-273,-283,-285,-271,-218,-162,-114,-83,-23,5,17,67,56,59,67,41,19,-7,-13,-73,-119,-159,-208,-256,-279,-253,-257,-261,-243,-245,-261,-237,-248,-238,-218,-217,-215,-236,-207,
839603260943796444:-222,-199,-199,-211,-205,-207,-196,-183,-186,-163,-167,-177,-179,-149,-157,-142,-152,-159,-146,-133,-135,-144,-148,-124,-136,-140,-139,-116,-119,-118,-124,-107,-122,-124,-108,-120,-128,-116,-112,-107,-109,-126,-131,-123,-133,-56,-37,18,17,1,-48,-80,-142,-142,-157,-265,-320,-262,-158,595,1068,1067,577,-181,-902,-1391,-1592,-1428,-900,-195,-227,-231,-233,
839603261505334905:-218,-239,-233,-250,-228,-251,-241,-199,-153,-99,-38,-11,27,37,75,89,82,66,71,20,3,-29,-62,-115,-169,-209,-293,-288,-288,-263,-287,-267,-282,-263,-279,-258,-265,-265,-253,-262,-249,-259,-240,-247,-244,-242,-224,-233,-219,-227,-226,-213,-214,-209,-220,-196,-194,-188,-192,-191,-171,-188,-173,-178,-174,-176,-172,-147,-142,-147,-146,-151,-136,
839603262066873366:-129,-140,-142,-134,-144,-138,-112,-131,-114,-124,-136,-123,-108,-112,-71,-12,13,33,5,-17,-69,-131,-130,-134,-242,-295,-250,-147,637,1097,1085,633,-147,-854,-1379,-1551,-1372,-857,-165,-163,-181,-190,-183,-191,-179,-191,-212,-206,-209,-147,-118,-54,-14,9,43,81,104,91,94,104,68,65,35,-25,-42,-109,-171,-218,-268,-271,-260,-285,-289,
839603262628411827:-291,-267,-289,-274,-280,-292,-282,-279,-268,-268,-266,-290,-276,-265,-256,-264,-255,-277,-273,-250,-256,-251,-250,-235,-250,-238,-245,-235,-219,-226,-227,-214,-228,-225,-196,-204,-197,-191,-197,-172,-180,-181,-183,-163,-159,-168,-176,-167,-150,-152,-161,-155,-131,-147,-148,-123,-75,-37,18,23,18,-17,-76,-115,-136,-127,-238,-273,-212,-106,641,1114,1122,
839603263189950288:637,-138,-825,-1352,-1540,-1353,-846,-134,-142,-135,-154,-158,-161,-149,-148,-162,-162,-150,-99,-62,-29,38,75,88,131,126,152,149,142,123,80,67,33,-21,-83,-140,-174,-227,-259,-254,-252,-248,-253,-262,-262,-250,-282,-260,-273,-273,-265,-283,-270,-283,-289,-280,-281,-266,-275,-292,-287,-288,-265,-263,-263,-288,-266,-278,-254,-278,-250,-263,-258,
839603263751488749:-245,-259,-246,-245,-254,-226,-249,-220,-243,-230,-218,-222,-226,-220,-209,-203,-207,-194,-177,-174,-185,-170,-171,-171,-168,-98,-68,-31,-13,-12,-29,-93,-145,-126,-127,-242,-287,-242,-130,625,1116,1112,641,-126,-830,-1342,-1523,-1322,-826,-130,-118,-122,-110,-117,-128,-122,-137,-139,-137,-126,-94,-23,20,65,108,141,161,187,181,195,172,166,134,
839603264313027210:120,70,26,-29,-96,-147,-203,-199,-209,-214,-225,-232,-231,-239,-222,-249,-227,-253,-238,-244,-260,-251,-256,-263,-272,-272,-263,-257,-278,-280,-275,-290,-285,-284,-272,-266,-270,-283,-291,-285,-276,-272,-280,-281,-269,-274,-258,-273,-275,-266,-273,-270,-251,-265,-261,-241,-247,-227,-249,-233,-246,-225,-237,-225,-219,-212,-204,-158,-87,-71,-35,-47,-74,
839603264874565671:-108,-171,-167,-166,-261,-312,-258,-148,625,1081,1086,617,-135,-829,-1336,-1527,-1328,-839,-123,-129,-131,-116,-119,-118,-113,-116,-126,-114,-132,-60,-7,33,91,121,168,181,208,230,211,219,202,171,137,96,67,-4,-45,-87,-148,-173,-172,-169,-169,-179,-180,-190,-182,-194,-192,-196,-207,-221,-218,-234,-208,-229,-234,-242,-251,-247,-253,-260,-257,
839603265436104132:-258,-245,-267,-250,-272,-253,-282,-271,-258,-263,-261,-274,-267,-283,-271,-270,-280,-264,-271,-290,-265,-267,-263,-276,-266,-268,-278,-283,-277,-263,-265,-268,-270,-248,-251,-255,-181,-124,-89,-84,-101,-121,-180,-220,-210,-199,-307,-351,-297,-194,567,1059,1040,591,-172,-881,-1368,-1576,-1380,-851,-160,-163,-159,-139,-140,-143,-144,-143,-138,-139,-119,-68,-18,
839603265997642593:31,86,128,174,205,215,215,220,219,197,177,147,138,68,38,-10,-65,-136,-146,-131,-151,-141,-129,-135,-152,-165,-163,-154,-171,-159,-169,-159,-177,-178,-182,-175,-190,-204,-202,-202,-206,-216,-201,-220,-239,-236,-238,-238,-244,-241,-259,-262,-264,-252,-248,-264,-257,-258,-267,-265,-256,-280,-281,-289,-278,-267,-282,-286,-293,-284,-276,-283,-266,
839603266559181054:-276,-267,-270,-269,-288,-221,-151,-142,-106,-132,-167,-213,-242,-254,-238,-355,-390,-350,-243,538,1000,1013,539,-207,-917,-1416,-1615,-1427,-913,-198,-179,-196,-182,-182,-172,-176,-181,-151,-151,-155,-92,-54,5,68,118,151,174,197,220,215,224,201,180,163,130,80,48,-3,-50,-113,-127,-127,-123,-114,-123,-124,-114,-123,-132,-136,-130,-141,-128,
839603267120719515:-144,-126,-141,-147,-154,-140,-169,-147,-166,-167,-173,-172,-186,-186,-197,-181,-207,-186,-200,-205,-196,-218,-205,-230,-237,-226,-245,-241,-227,-235,-251,-240,-239,-260,-248,-268,-272,-257,-277,-274,-287,-280,-274,-262,-274,-263,-269,-213,-183,-148,-120,-151,-157,-207,-273,-290,-273,-366,-422,-376,-278,489,977,969,519,-240,-961,-1458,-1655,-1462,-935,-229,-243,
839603267682257976:-219,-209,-209,-220,-216,-213,-193,-204,-206,-142,-88,-28,29,63,108,155,181,183,185,177,193,154,151,104,75,14,-29,-74,-124,-116,-112,-116,-127,-118,-123,-134,-113,-132,-111,-129,-116,-119,-115,-125,-114,-132,-126,-135,-139,-135,-123,-120,-143,-147,-131,-132,-140,-144,-147,-165,-150,-156,-172,-158,-176,-166,-191,-176,-205,-187,-193,-212,-194,
839603268243796437:-211,-205,-225,-225,-239,-222,-227,-251,-241,-253,-247,-263,-252,-249,-266,-276,-207,-167,-120,-118,-131,-177,-219,-271,-263,-272,-400,-438,-375,-292,492,961,954,490,-271,-986,-1478,-1657,-1483,-958,-266,-260,-251,-254,-249,-264,-240,-247,-252,-238,-233,-178,-118,-64,-22,43,82,97,139,141,166,163,152,121,90,81,24,-6,-65,-97,-175,-163,-165,
839603268805334898:-159,-156,-142,-151,-137,-137,-147,-123,-134,-138,-122,-132,-133,-128,-111,-132,-135,-114,-129,-106,-106,-129,-125,-115,-126,-113,-137,-131,-123,-119,-132,-123,-142,-144,-130,-131,-150,-150,-166,-145,-162,-178,-155,-186,-164,-179,-178,-202,-198,-195,-204,-203,-203,-224,-212,-233,-232,-221,-161,-127,-112,-100,-120,-155,-184,-268,-269,-266,-367,-423,-381,-265,479,
839603269366873359:975,969,494,-263,-989,-1503,-1666,-1491,-978,-268,-268,-288,-268,-265,-278,-263,-271,-260,-284,-255,-208,-157,-108,-44,-11,20,53,73,89,104,122,109,69,67,33,-6,-60,-87,-140,-208,-204,-192,-190,-194,-174,-167,-185,-171,-158,-176,-175,-171,-139,-144,-158,-149,-140,-151,-139,-126,-124,-120,-127,-131,-120,-137,-134,-116,-116,-108,-121,-119,-133,
839603269928411820:-114,-127,-111,-115,-116,-138,-131,-134,-132,-133,-121,-129,-128,-151,-131,-151,-163,-140,-153,-154,-169,-169,-156,-170,-173,-172,-193,-117,-89,-61,-56,-82,-103,-147,-208,-230,-238,-337,-392,-335,-240,524,987,977,521,-256,-962,-1487,-1652,-1483,-959,-274,-269,-260,-287,-290,-285,-282,-290,-283,-278,-279,-235,-185,-115,-77,-19,17,28,68,80,94,93,
839603270489950281:65,54,19,2,-51,-80,-138,-196,-227,-244,-224,-240,-225,-232,-223,-209,-225,-208,-205,-186,-211,-207,-196,-192,-176,-180,-188,-164,-152,-160,-167,-156,-164,-147,-150,-155,-127,-139,-127,-145,-122,-129,-139,-140,-125,-121,-126,-110,-120,-133,-107,-111,-112,-132,-132,-115,-110,-120,-137,-133,-126,-134,-131,-130,-151,-150,-138,-156,-152,-93,-55,-30,-23,
839603271051488742:-38,-72,-107,-182,-170,-181,-291,-329,-305,-187,565,1015,1010,564,-212,-932,-1446,-1627,-1456,-926,-247,-258,-234,-253,-241,-270,-257,-272,-270,-274,-279,-203,-176,-108,-82,-42,15,34,39,53,59,54,63,47,-3,-38,-57,-107,-162,-227,-270,-267,-268,-256,-262,-272,-257,-258,-264,-239,-248,-242,-252,-226,-225,-238,-234,-217,-200,-212,-199,-194,-193,
839603271613027203:-199,-190,-172,-170,-173,-185,-183,-164,-163,-171,-148,-162,-158,-162,-140,-129,-154,-132,-148,-122,-144,-115,-118,-129,-126,-128,-111,-120,-126,-125,-129,-121,-110,-105,-111,-128,-116,-138,-73,-7,24,22,4,-33,-72,-125,-141,-158,-268,-316,-268,-168,611,1055,1069,580,-167,-892,-1387,-1596,-1415,-910,-209,-193,-208,-225,-230,-225,-238,-228,-239,-228,-251,
839603272174565664:-175,-125,-77,-47,-15,15,57,63,75,75,87,74,32,19,-33,-72,-119,-167,-231,-283,-265,-289,-268,-275,-282,-284,-274,-279,-267,-265,-281,-258,-278,-266,-271,-251,-264,-251,-260,-251,-245,-239,-244,-225,-239,-232,-222,-212,-200,-216,-204,-187,-207,-205,-201,-189,-187,-182,-187,-160,-164,-153,-157,-142,-147,-137,-133,-135,-137,-145,-137,-126,-140,
839603272736104125:-126,-123,-139,-135,-116,-117,-114,-48,-21,29,22,21,-19,-70,-124,-128,-131,-233,-286,-220,-114,644,1098,1094,626,-132,-845,-1352,-1540,-1375,-848,-159,-151,-175,-170,-175,-165,-182,-188,-176,-204,-194,-139,-94,-65,-4,32,49,94,112,106,114,94,102,65,41,-20,-61,-86,-165,-203,-274,-271,-259,-274,-272,-283,-287,-269,-285,-266,-293,-267,
839603273297642586:-265,-288,-280,-271,-263,-281,-278,-272,-268,-262,-281,-275,-270,-266,-266,-262,-269,-250,-247,-241,-240,-246,-229,-218,-228,-223,-224,-225,-198,-216,-190,-198,-197,-196,-187,-189,-172,-177,-177,-179,-170,-156,-158,-148,-149,-162,-132,-157,-125,-91,-21,3,10,1,-21,-72,-137,-128,-117,-220,-278,-229,-113,632,1112,1127,645,-132,-818,-1343,-1510,-1339,-819,
839603273859181047:-122,-147,-135,-141,-150,-141,-140,-143,-166,-166,-147,-118,-60,-3,35,63,99,133,138,161,160,136,143,94,82,31,-19,-72,-128,-189,-220,-243,-236,-250,-252,-245,-256,-272,-259,-268,-266,-266,-282,-259,-268,-287,-273,-275,-268,-286,-286,-276,-287,-264,-292,-294,-272,-286,-283,-287,-261,-283,-260,-265,-261,-265,-247,-256,-263,-261,-254,-256,-239,
839603274420719508:-246,-223,-223,-222,-236,-232,-229,-201,-214,-222,-193,-202,-203,-196,-172,-177,-184,-176,-105,-54,-35,0,-3,-43,-92,-137,-153,-155,-230,-296,-235,-135,630,1118,1108,644,-123,-835,-1337,-1527,-1342,-810,-124,-115,-112,-122,-124,-123,-129,-127,-140,-118,-136,-64,-21,17,75,121,151,162,181,196,186,192,169,147,120,59,34,-35,-71,-135,-202,
839603274982257969:-204,-205,-195,-210,-197,-217,-215,-236,-239,-235,-228,-244,-252,-260,-247,-266,-270,-248,-251,-278,-251,-266,-279,-269,-258,-261,-272,-273,-275,-284,-265,-264,-285,-267,-285,-280,-284,-292,-280,-284,-259,-269,-285,-254,-275,-266,-266,-262,-246,-264,-239,-237,-253,-253,-234,-226,-219,-232,-229,-220,-165,-114,-68,-48,-44,-80,-142,-175,-181,-169,-294,-320,-280,
839603275543796430:-155,608,1094,1095,607,-151,-850,-1356,-1528,-1344,-829,-129,-122,-134,-116,-111,-131,-123,-134,-125,-105,-107,-55,-23,37,93,129,146,181,203,225,230,230,198,170,140,112,69,2,-47,-106,-145,-163,-154,-151,-159,-181,-188,-186,-192,-182,-181,-193,-183,-201,-212,-225,-221,-217,-233,-238,-231,-222,-231,-248,-246,-255,-243,-243,-244,-258,-272,-272,
839603276105334891:-265,-267,-280,-274,-270,-277,-262,-268,-285,-287,-279,-270,-269,-290,-283,-294,-283,-262,-268,-289,-268,-274,-278,-259,-252,-266,-255,-251,-249,-189,-137,-110,-96,-99,-127,-162,-241,-220,-205,-329,-358,-322,-210,576,1034,1030,568,-175,-876,-1402,-1583,-1386,-880,-171,-145,-153,-156,-142,-135,-128,-135,-151,-148,-129,-91,-16,32,91,122,173,178,222,235,
839603276666873352:227,215,223,180,153,115,70,46,-2,-71,-118,-136,-143,-136,-146,-146,-145,-137,-131,-133,-161,-147,-145,-160,-154,-159,-175,-170,-193,-189,-185,-195,-182,-187,-198,-192,-206,-229,-212,-214,-213,-230,-237,-230,-231,-259,-235,-249,-268,-254,-253,-260,-272,-258,-283,-275,-259,-285,-260,-287,-273,-283,-273,-274,-290,-268,-272,-265,-293,-271,-281,-206,-179,
839603277228411813:-125,-121,-138,-153,-211,-255,-252,-257,-369,-395,-361,-254,535,993,987,528,-216,-919,-1435,-1605,-1410,-895,-211,-214,-184,-191,-195,-172,-169,-179,-187,-155,-151,-109,-60,-2,48,91,126,170,179,208,219,217,188,177,148,126,95,27,-18,-72,-131,-133,-132,-105,-117,-122,-121,-107,-117,-128,-119,-115,-115,-142,-143,-145,-144,-129,-139,-160,-161,
839603277789950274:-142,-143,-173,-160,-159,-155,-180,-172,-174,-178,-192,-179,-181,-200,-208,-218,-203,-231,-230,-224,-234,-246,-224,-241,-238,-231,-259,-240,-270,-252,-247,-257,-275,-264,-281,-285,-272,-275,-261,-280,-218,-182,-132,-115,-129,-185,-229,-289,-274,-271,-381,-426,-384,-282,485,958,965,485,-272,-952,-1476,-1650,-1466,-955,-254,-236,-233,-241,-234,-215,-208,-233,-218,
839603278351488735:-197,-214,-154,-91,-36,15,47,110,127,153,182,194,197,182,169,144,107,46,24,-30,-68,-122,-148,-121,-125,-120,-126,-118,-125,-124,-115,-127,-127,-125,-113,-131,-127,-110,-135,-128,-120,-110,-131,-124,-137,-121,-146,-146,-137,-150,-140,-161,-165,-148,-152,-156,-166,-161,-173,-186,-189,-178,-175,-183,-199,-207,-198,-218,-223,-210,-205,-231,-216,
839603278913027196:-215,-219,-233,-225,-250,-244,-261,-249,-271,-189,-168,-127,-124,-115,-166,-229,-288,-289,-265,-392,-426,-379,-271,492,968,942,498,-268,-982,-1479,-1661,-1495,-982,-275,-274,-253,-280,-276,-268,-249,-252,-253,-257,-261,-199,-138,-77,-37,34,46,77,119,118,156,154,116,118,104,64,19,-7,-83,-112,-154,-159,-175,-146,-155,-149,-143,-144,-146,-148,
839603279474565657:-143,-146,-141,-119,-126,-125,-119,-112,-110,-118,-116,-121,-117,-113,-125,-116,-121,-118,-122,-124,-129,-111,-138,-132,-127,-135,-131,-134,-128,-148,-147,-137,-142,-148,-156,-156,-162,-170,-177,-162,-178,-186,-186,-203,-203,-191,-200,-210,-210,-220,-204,-176,-125,-76,-76,-102,-119,-182,-236,-258,-269,-354,-400,-356,-279,484,968,959,491,-271,-987,-1497,-1669,
839603280036104118:-1498,-989,-265,-271,-278,-290,-294,-288,-286,-289,-290,-282,-263,-201,-154,-111,-53,-18,33,61,71,90,115,109,98,62,47,12,-27,-65,-124,-154,-219,-209,-189,-214,-181,-180,-190,-197,-186,-161,-164,-173,-172,-175,-160,-165,-147,-159,-133,-130,-142,-138,-148,-123,-140,-118,-139,-123,-133,-130,-116,-120,-109,-111,-112,-108,-130,-122,-125,-110,-110,
839603280597642579:-121,-130,-122,-122,-134,-141,-126,-134,-126,-129,-158,-150,-161,-140,-172,-175,-174,-171,-165,-186,-110,-86,-40,-33,-47,-101,-151,-193,-220,-211,-311,-361,-344,-242,535,1007,988,508,-261,-964,-1470,-1647,-1459,-951,-277,-254,-269,-275,-264,-262,-279,-271,-274,-269,-268,-214,-176,-123,-62,-43,-5,49,61,82,89,64,57,47,12,-29,-40,-91,-149,
839603281159181040:-208,-240,-237,-257,-231,-240,-232,-224,-211,-226,-204,-222,-219,-199,-216,-184,-194,-202,-183,-174,-183,-171,-172,-168,-166,-159,-149,-152,-151,-160,-130,-150,-153,-136,-121,-137,-131,-140,-134,-116,-112,-129,-134,-124,-134,-115,-132,-129,-123,-119,-125,-107,-129,-120,-129,-124,-141,-124,-135,-124,-144,-142,-74,-43,-1,-3,-8,-46,-115,-181,-173,-168,-294,
839603281720719501:-322,-306,-197,575,1028,1019,552,-197,-923,-1416,-1617,-1439,-928,-247,-248,-247,-236,-248,-242,-248,-254,-245,-270,-270,-205,-145,-123,-77,-32,15,21,54,64,73,73,42,32,17,-46,-70,-121,-165,-206,-289,-272,-269,-273,-257,-267,-268,-256,-245,-260,-247,-246,-243,-231,-239,-222,-247,-218,-211,-218,-217,-198,-202,-201,-200,-193,-195,-186,-192,-191,
839603282282257962:-187,-168,-158,-170,-162,-172,-144,-147,-138,-132,-144,-149,-135,-136,-133,-142,-116,-125,-112,-123,-108,-115,-130,-110,-131,-116,-122,-115,-108,-123,-122,-77,-19,3,25,6,-13,-68,-146,-141,-145,-236,-291,-250,-142,601,1082,1063,587,-162,-856,-1401,-1587,-1387,-900,-201,-189,-212,-215,-204,-198,-218,-217,-238,-226,-220,-167,-120,-93,-30,-3,23,52,
839603282843796423:81,92,74,85,62,31,14,-22,-55,-117,-179,-218,-267,-293,-290,-286,-287,-292,-280,-267,-279,-285,-266,-268,-268,-281,-255,-259,-260,-268,-246,-262,-251,-249,-252,-249,-245,-224,-244,-240,-224,-238,-233,-207,-200,-207,-194,-196,-206,-195,-180,-168,-181,-173,-187,-177,-172,-170,-171,-165,-158,-143,-143,-128,-133,-133,-124,-121,-124,-139,-111,-135,-126,
839603283405334884:-69,-26,23,30,15,-12,-56,-114,-108,-129,-216,-278,-233,-111,624,1103,1099,642,-135,-849,-1356,-1552,-1356,-848,-158,-155,-146,-155,-160,-163,-182,-188,-172,-180,-202,-127,-90,-52,-10,35,69,88,118,135,121,126,104,63,44,-13,-48,-90,-148,-217,-245,-272,-258,-270,-254,-278,-264,-263,-270,-288,-263,-265,-270,-270,-270,-268,-271,-272,-279,
839603283966873345:-271,-268,-285,-281,-276,-256,-257,-257,-258,-253,-246,-266,-243,-242,-238,-254,-234,-242,-218,-225,-238,-228,-209,-216,-220,-212,-201,-199,-208,-204,-181,-169,-181,-162,-177,-181,-157,-161,-167,-159,-145,-160,-78,-40,5,-1,-1,-33,-59,-124,-112,-126,-221,-266,-238,-122,655,1119,1108,639,-131,-823,-1328,-1536,-1335,-828,-120,-142,-121,-120,-120,-136,-152,
839603284528411806:-135,-133,-134,-161,-106,-48,-11,31,88,114,151,151,160,167,143,133,112,95,36,-16,-43,-123,-168,-212,-241,-241,-241,-254,-240,-233,-254,-244,-269,-245,-255,-274,-280,-279,-263,-271,-285,-282,-287,-276,-272,-294,-278,-273,-274,-281,-278,-286,-269,-287,-284,-269,-278,-279,-271,-263,-266,-265,-261,-250,-248,-265,-243,-256,-238,-229,-230,-217,-223,
839603285089950267:-209,-209,-223,-199,-201,-218,-205,-190,-188,-185,-198,-122,-81,-47,-13,-24,-58,-115,-160,-167,-143,-264,-294,-231,-146,643,1112,1100,645,-138,-822,-1337,-1517,-1322,-821,-127,-129,-122,-122,-119,-128,-116,-121,-132,-123,-124,-67,-11,24,65,99,143,175,196,203,190,190,183,157,127,91,51,0,-53,-117,-178,-188,-178,-210,-188,-200,-209,-199,
839603285651488728:-213,-223,-237,-235,-245,-224,-232,-228,-245,-240,-238,-252,-266,-255,-260,-267,-259,-257,-274,-275,-270,-281,-284,-274,-283,-277,-274,-269,-288,-279,-265,-293,-283,-275,-272,-285,-267,-266,-276,-280,-267,-251,-257,-266,-267,-245,-238,-241,-230,-240,-248,-228,-236,-179,-117,-75,-51,-78,-102,-128,-185,-198,-178,-289,-316,-278,-159,600,1058,1077,606,-151,-850,
839603286213027189:-1373,-1545,-1351,-843,-148,-131,-124,-140,-140,-120,-112,-133,-119,-115,-123,-73,-2,30,94,122,160,200,221,221,226,224,219,171,147,128,56,18,-19,-95,-134,-134,-159,-144,-158,-169,-177,-161,-180,-175,-190,-196,-174,-194,-209,-211,-211,-214,-224,-215,-220,-230,-230,-246,-232,-234,-242,-257,-237,-241,-253,-255,-274,-257,-272,-275,-283,-275,-262,
839603286774565650:-280,-285,-265,-283,-293,-288,-288,-284,-294,-271,-264,-276,-287,-288,-273,-266,-275,-271,-278,-281,-266,-248,-198,-164,-110,-113,-111,-128,-183,-246,-235,-239,-330,-383,-337,-201,553,1023,1024,563,-192,-882,-1399,-1586,-1378,-881,-179,-168,-158,-166,-145,-140,-153,-140,-150,-152,-138,-68,-26,23,75,105,161,185,207,233,215,216,199,204,160,125,82,
839603287336104111:37,-26,-59,-131,-118,-135,-135,-116,-130,-149,-139,-144,-147,-158,-159,-153,-164,-141,-152,-168,-163,-164,-168,-179,-180,-198,-175,-208,-197,-187,-196,-205,-212,-212,-220,-219,-231,-225,-232,-253,-244,-244,-245,-249,-244,-251,-266,-278,-254,-269,-277,-262,-263,-278,-275,-262,-288,-287,-288,-290,-271,-289,-283,-269,-217,-178,-146,-119,-136,-155,-211,-278,-262,
839603287897642572:-265,-381,-408,-353,-261,500,997,1006,538,-246,-928,-1432,-1622,-1419,-923,-200,-220,-198,-194,-209,-177,-181,-199,-169,-163,-165,-101,-71,4,46,91,134,164,200,208,210,212,185,182,162,129,68,33,-15,-59,-118,-113,-117,-105,-108,-130,-127,-117,-123,-112,-127,-139,-139,-118,-120,-122,-139,-120,-130,-135,-147,-146,-150,-163,-162,-170,-149,-173,
839603288459181033:-182,-166,-186,-192,-195,-172,-196,-206,-190,-207,-202,-212,-218,-223,-230,-239,-238,-226,-229,-237,-242,-237,-253,-245,-262,-271,-256,-273,-263,-276,-286,-265,-271,-221,-180,-126,-139,-134,-184,-213,-278,-278,-268,-381,-427,-380,-264,498,975,958,482,-256,-951,-1461,-1647,-1475,-962,-257,-244,-230,-241,-226,-222,-225,-227,-230,-218,-215,-153,-112,-55,3,39,
839603289020719494:78,115,159,155,164,159,172,138,113,76,43,-5,-28,-101,-151,-147,-130,-120,-135,-134,-129,-137,-127,-125,-108,-136,-124,-128,-112,-125,-135,-105,-109,-127,-130,-124,-109,-118,-115,-115,-123,-128,-139,-131,-143,-148,-161,-152,-141,-148,-154,-175,-175,-160,-165,-164,-181,-193,-191,-186,-183,-190,-207,-197,-222,-203,-208,-211,-232,-230,-227,-233,-227,
839603289582257955:-259,-243,-184,-152,-116,-95,-125,-160,-212,-275,-283,-281,-390,-439,-386,-289,478,951,954,471,-294,-992,-1499,-1691,-1483,-971,-269,-279,-266,-283,-277,-260,-256,-262,-247,-271,-245,-209,-137,-88,-43,7,45,68,109,111,131,132,110,99,90,54,26,-32,-76,-123,-168,-177,-185,-175,-161,-160,-149,-151,-162,-141,-150,-149,-125,-139,-123,-138,-120,
839603290143796416:-141,-114,-122,-112,-120,-127,-130,-118,-106,-119,-125,-132,-121,-134,-107,-109,-109,-115,-125,-144,-139,-135,-122,-133,-156,-148,-135,-135,-145,-153,-164,-152,-166,-173,-173,-191,-173,-194,-189,-187,-199,-204,-205,-224,-165,-97,-91,-72,-96,-115,-170,-242,-242,-242,-352,-406,-352,-271,491,964,979,502,-276,-957,-1475,-1660,-1475,-980,-274,-272,-279,-273,-273,
839603290705334877:-274,-283,-282,-287,-264,-268,-234,-179,-101,-51,-5,21,44,64,82,88,83,72,70,29,19,-21,-75,-113,-157,-220,-218,-207,-194,-209,-202,-211,-200,-180,-188,-192,-170,-160,-179,-160,-166,-158,-149,-160,-137,-143,-144,-145,-136,-142,-148,-137,-126,-112,-137,-134,-116,-114,-131,-129,-135,-114,-130,-125,-105,-134,-117,-130,-131,-135,-126,-131,-132,
839603291266873338:-127,-127,-151,-154,-129,-160,-150,-158,-144,-165,-147,-173,-167,-125,-82,-27,-33,-54,-92,-146,-207,-188,-208,-314,-359,-329,-223,532,995,994,536,-241,-935,-1449,-1660,-1477,-964,-259,-269,-270,-256,-256,-265,-275,-267,-266,-292,-272,-212,-157,-111,-83,-29,1,43,62,56,86,56,46,27,-2,-35,-64,-111,-164,-204,-259,-268,-260,-259,-236,-231,
839603291828411799:-251,-239,-218,-229,-216,-211,-226,-211,-196,-207,-189,-209,-198,-175,-195,-168,-177,-167,-161,-176,-151,-167,-150,-141,-149,-157,-154,-132,-135,-131,-122,-136,-133,-112,-127,-133,-137,-109,-136,-107,-110,-111,-126,-123,-132,-124,-121,-121,-109,-137,-139,-141,-120,-121,-128,-76,-38,-6,17,-3,-51,-89,-154,-158,-166,-273,-327,-290,-170,573,1053,1037,578,
839603292389950260:-199,-912,-1425,-1624,-1416,-915,-235,-241,-243,-245,-239,-242,-252,-235,-244,-244,-251,-205,-168,-105,-74,-11,27,36,57,73,63,54,41,19,2,-44,-78,-112,-166,-234,-284,-285,-278,-283,-280,-280,-262,-268,-250,-265,-259,-241,-243,-250,-232,-236,-245,-244,-232,-234,-213,-207,-203,-217,-215,-212,-206,-197,-184,-180,-195,-172,-193,-162,-169,-178,-165,
839603292951488721:-162,-154,-147,-149,-155,-129,-128,-141,-121,-118,-135,-116,-141,-134,-129,-129,-131,-126,-118,-133,-117,-132,-134,-111,-64,-14,29,16,10,-25,-74,-137,-126,-130,-234,-282,-252,-134,630,1079,1078,594,-162,-862,-1394,-1566,-1401,-877,-176,-176,-205,-194,-191,-211,-209,-212,-200,-215,-218,-163,-135,-75,-28,22,40,53,81,95,103,72,84,50,5,
839603293513027182:-26,-66,-126,-179,-216,-270,-277,-274,-282,-280,-280,-294,-276,-264,-279,-293,-290,-276,-261,-281,-256,-280,-263,-262,-249,-269,-257,-249,-254,-250,-236,-233,-235,-248,-233,-222,-236,-222,-205,-217,-217,-191,-193,-195,-196,-200,-176,-173,-187,-175,-174,-166,-152,-172,-158,-156,-154,-135,-146,-128,-134,-132,-143,-137,-129,-137,-77,-10,7,33,9,-12,-74,
839603294074565643:-127,-131,-105,-224,-262,-239,-131,627,1118,1118,634,-126,-842,-1345,-1530,-1344,-834,-134,-138,-153,-167,-159,-147,-168,-156,-187,-189,-168,-124,-71,-41,18,38,86,93,113,125,135,129,106,92,64,16,-38,-85,-142,-189,-266,-243,-256,-248,-262,-256,-257,-277,-259,-284,-268,-280,-275,-264,-267,-292,-265,-290,-284,-278,-270,-276,-288,-262,-269,-282,
839603294636104104:-263,-267,-282,-274,-277,-247,-259,-266,-237,-252,-240,-229,-235,-220,-223,-222,-227,-218,-221,-209,-197,-199,-199,-181,-189,-196,-169,-164,-187,-186,-155,-163,-154,-154,-154,-95,-40,-2,-5,8,-35,-66,-121,-139,-126,-232,-284,-235,-111,630,1122,1103,659,-131,-810,-1329,-1515,-1332,-821,-115,-131,-131,-120,-141,-140,-140,-138,-125,-150,-141,-94,-37,14,
839603295197642565:42,97,106,136,159,173,176,152,147,124,78,52,15,-42,-107,-159,-227,-227,-239,-240,-239,-236,-247,-255,-261,-238,-266,-262,-268,-250,-254,-271,-275,-254,-273,-274,-267,-263,-283,-285,-280,-291,-274,-275,-281,-289,-271,-274,-276,-291,-278,-271,-263,-258,-257,-269,-274,-274,-245,-249,-247,-259,-241,-252,-229,-249,-243,-232,-220,-234,-219,-223,-219,
839603295759181026:-191,-209,-199,-187,-129,-79,-45,-21,-27,-75,-110,-154,-162,-158,-265,-304,-251,-159,614,1093,1087,642,-144,-843,-1352,-1533,-1330,-814,-125,-128,-111,-132,-105,-129,-106,-135,-128,-106,-130,-55,-8,18,92,115,144,168,186,216,222,194,196,148,126,93,48,-14,-60,-125,-178,-192,-196,-180,-177,-184,-203,-215,-213,-212,-202,-222,-236,-236,-217,
839603296320719487:-238,-227,-234,-228,-253,-249,-248,-260,-246,-254,-274,-256,-265,-260,-260,-288,-266,-283,-288,-267,-278,-278,-284,-288,-277,-285,-281,-287,-265,-265,-273,-276,-279,-278,-254,-279,-266,-252,-271,-241,-265,-237,-252,-227,-254,-231,-174,-117,-72,-60,-80,-110,-153,-208,-187,-185,-300,-329,-280,-179,583,1059,1065,596,-153,-860,-1379,-1546,-1375,-860,-137,-150,-127,
839603296882257948:-140,-147,-121,-132,-136,-138,-132,-119,-52,-24,31,92,134,173,193,222,234,236,235,222,192,158,120,69,15,-21,-76,-132,-154,-157,-154,-162,-157,-150,-150,-169,-155,-162,-165,-171,-175,-193,-197,-199,-208,-209,-204,-213,-226,-222,-217,-221,-223,-245,-247,-236,-246,-244,-260,-248,-249,-245,-249,-271,-266,-275,-257,-281,-275,-285,-276,-279,-284,
839603297443796409:-273,-279,-286,-288,-265,-264,-289,-271,-277,-267,-266,-275,-256,-280,-272,-213,-157,-114,-100,-106,-154,-197,-232,-241,-238,-330,-389,-341,-221,530,1032,1017,566,-214,-909,-1392,-1595,-1407,-881,-174,-184,-176,-174,-167,-163,-147,-156,-164,-141,-156,-96,-37,22,66,108,163,171,207,210,219,230,211,189,152,126,77,46,-15,-52,-107,-128,-110,-132,
839603298005334870:-126,-116,-127,-137,-119,-133,-137,-130,-133,-153,-144,-165,-161,-165,-160,-151,-184,-182,-177,-181,-189,-192,-180,-206,-213,-219,-219,-202,-204,-217,-209,-231,-224,-245,-225,-257,-251,-252,-258,-258,-254,-261,-270,-268,-278,-254,-271,-286,-281,-283,-263,-275,-280,-289,-281,-288,-279,-206,-175,-132,-116,-146,-165,-203,-258,-268,-268,-374,-409,-373,-260,507,975,
839603298566873331:971,514,-228,-940,-1438,-1640,-1455,-919,-209,-221,-202,-196,-196,-203,-212,-182,-189,-192,-195,-138,-72,0,34,85,119,166,183,188,203,209,176,159,162,119,63,29,-21,-74,-138,-129,-137,-130,-117,-133,-130,-120,-109,-122,-116,-129,-129,-129,-125,-112,-118,-127,-133,-133,-123,-148,-137,-155,-134,-149,-164,-163,-160,-156,-152,-174,-184,-179,-184,
839603299128411792:-181,-202,-203,-209,-195,-212,-215,-209,-232,-222,-211,-224,-238,-236,-228,-255,-251,-251,-263,-246,-247,-271,-262,-261,-264,-282,-222,-165,-126,-113,-148,-163,-229,-287,-280,-264,-371,-417,-379,-287,492,965,976,490,-258,-963,-1491,-1655,-1478,-956,-254,-246,-254,-244,-247,-250,-238,-229,-237,-233,-238,-152,-92,-39,-17,56,96,122,146,151,169,160,148,
839603299689950253:125,112,88,42,-4,-59,-110,-139,-149,-147,-128,-126,-128,-144,-121,-122,-123,-111,-109,-131,-111,-122,-124,-127,-119,-128,-109,-117,-111,-136,-107,-137,-140,-112,-142,-133,-147,-131,-130,-136,-129,-143,-139,-158,-143,-165,-169,-165,-170,-182,-171,-185,-171,-198,-176,-208,-204,-218,-196,-211,-220,-234,-215,-216,-223,-230,-224,-249,-202,-146,-115,-98,-110,
839603300251488714:-143,-210,-278,-276,-275,-376,-430,-395,-281,486,973,952,491,-275,-985,-1488,-1665,-1477,-986,-286,-265,-280,-289,-278,-257,-278,-262,-279,-273,-267,-212,-146,-88,-49,10,36,70,83,104,120,121,107,100,62,33,5,-40,-83,-133,-173,-196,-177,-169,-178,-171,-174,-165,-166,-139,-157,-135,-138,-157,-126,-147,-142,-138,-127,-137,-117,-127,-133,-135,
839603300813027175:-120,-130,-134,-133,-122,-119,-126,-127,-116,-136,-126,-111,-124,-136,-122,-124,-130,-129,-123,-126,-137,-154,-141,-149,-160,-172,-147,-173,-164,-182,-166,-171,-184,-196,-179,-207,-205,-158,-94,-82,-74,-96,-122,-162,-246,-236,-244,-350,-387,-344,-239,518,985,968,508,-273,-955,-1488,-1674,-1488,-968,-286,-265,-287,-270,-283,-281,-272,-270,-288,-290,-269,-211,
839603301374565636:-156,-122,-81,-15,13,30,67,77,95,83,62,58,42,9,-46,-81,-141,-166,-217,-238,-212,-209,-211,-210,-200,-209,-197,-184,-189,-178,-173,-168,-186,-157,-182,-172,-158,-143,-167,-151,-150,-159,-156,-146,-138,-146,-143,-125,-132,-127,-112,-121,-122,-136,-116,-133,-127,-126,-107,-135,-130,-116,-115,-134,-121,-128,-143,-133,-133,-132,-151,-137,-135,
839603301936104097:-129,-141,-153,-154,-152,-154,-98,-72,-22,-31,-29,-84,-140,-201,-203,-187,-317,-350,-308,-224,556,1026,1018,521,-247,-934,-1465,-1647,-1454,-964,-253,-244,-251,-257,-269,-262,-277,-285,-285,-279,-260,-212,-162,-113,-80,-40,14,18,58,59,80,74,62,39,0,-26,-65,-95,-160,-214,-260,-263,-257,-246,-252,-263,-258,-229,-249,-235,-220,-227,-235,
839603302497642558:-215,-229,-222,-200,-215,-197,-211,-203,-199,-175,-181,-187,-173,-160,-165,-156,-166,-164,-147,-163,-160,-132,-138,-136,-121,-137,-133,-142,-133,-136,-138,-117,-113,-127,-111,-116,-129,-133,-130,-125,-123,-114,-120,-116,-127,-129,-124,-124,-81,-20,-10,25,6,-46,-80,-147,-152,-151,-281,-300,-289,-180,579,1043,1060,568,-195,-888,-1398,-1594,-1418,-906,-227,
839603303059181019:-212,-237,-212,-218,-237,-241,-254,-235,-245,-251,-204,-139,-115,-60,-29,19,27,62,88,89,79,55,40,-4,-23,-59,-114,-170,-213,-280,-263,-266,-272,-287,-284,-268,-274,-275,-281,-269,-262,-269,-242,-260,-265,-251,-237,-229,-250,-236,-223,-224,-237,-224,-208,-221,-194,-200,-214,-196,-197,-200,-171,-186,-176,-163,-156,-151,-155,-169,-157,-154,-152,
839603303620719480:-134,-149,-127,-138,-119,-146,-133,-136,-131,-131,-114,-112,-135,-107,-132,-134,-125,-56,-23,6,40,2,-5,-61,-116,-130,-116,-229,-276,-227,-134,612,1108,1091,617,-159,-868,-1372,-1554,-1378,-872,-166,-185,-178,-179,-184,-195,-193,-199,-219,-218,-224,-156,-109,-72,-25,1,45,86,85,112,91,78,78,60,22,-19,-47,-98,-151,-224,-288,-275,
839603304182257941:-264,-276,-288,-288,-274,-294,-288,-284,-284,-277,-281,-287,-267,-260,-288,-277,-261,-257,-278,-258,-258,-252,-245,-254,-265,-254,-251,-230,-250,-248,-217,-226,-211,-216,-211,-217,-217,-192,-203,-182,-205,-193,-174,-192,-171,-175,-180,-162,-152,-165,-166,-147,-149,-152,-138,-139,-149,-129,-127,-79,-23,27,26,16,-22,-49,-130,-128,-120,-221,-277,-229,-125,
839603304743796402:653,1109,1128,642,-134,-823,-1342,-1540,-1355,-846,-140,-154,-155,-136,-161,-166,-145,-174,-165,-179,-170,-121,-79,-13,17,51,77,109,134,142,143,117,113,74,56,8,-30,-83,-141,-184,-261,-242,-254,-256,-251,-261,-257,-268,-253,-261,-258,-282,-265,-276,-289,-277,-287,-282,-267,-279,-284,-287,-290,-264,-277,-282,-279,-284,-257,-283,-259,-267,-269,
839603305305334863:-252,-259,-259,-260,-252,-235,-238,-234,-231,-242,-229,-213,-219,-201,-222,-199,-203,-212,-190,-201,-173,-176,-179,-192,-163,-175,-171,-167,-114,-38,-10,-11,-14,-24,-94,-143,-128,-134,-233,-270,-244,-120,629,1118,1114,651,-120,-813,-1334,-1529,-1325,-835,-134,-119,-120,-114,-123,-112,-133,-134,-124,-136,-149,-84,-47,15,57,81,140,167,160,175,170,
839603305866873324:173,162,124,103,48,20,-22,-105,-156,-194,-226,-202,-218,-227,-213,-219,-237,-248,-232,-245,-251,-266,-241,-266,-263,-261,-253,-262,-281,-256,-271,-259,-265,-290,-290,-281,-270,-284,-276,-272,-278,-292,-292,-276,-266,-261,-264,-260,-270,-261,-270,-277,-271,-245,-264,-251,-258,-261,-254,-247,-247,-245,-228,-232,-217,-209,-204,-222,-218,-203,-138,-94,-55,
839603306428411785:-36,-54,-76,-112,-175,-159,-161,-281,-316,-249,-158,621,1100,1090,637,-136,-848,-1336,-1516,-1334,-819,-110,-111,-113,-133,-107,-110,-110,-112,-127,-123,-124,-65,-4,34,76,124,144,187,205,210,227,218,206,166,127,100,56,8,-65,-109,-181,-177,-183,-176,-179,-192,-191,-187,-191,-202,-218,-203,-214,-213,-206,-218,-225,-244,-226,-226,-237,-254,
839603306989950246:-259,-247,-256,-245,-273,-277,-271,-279,-258,-278,-262,-281,-262,-266,-282,-290,-271,-277,-267,-271,-287,-267,-276,-283,-291,-276,-263,-275,-257,-279,-254,-254,-262,-270,-253,-265,-245,-239,-232,-176,-123,-81,-90,-88,-99,-149,-211,-203,-197,-309,-363,-287,-185,571,1049,1063,577,-165,-870,-1362,-1554,-1383,-868,-136,-150,-152,-137,-150,-124,-126,-122,-132,-138,
839603307551488707:-133,-77,-11,21,85,135,171,187,225,235,225,236,212,178,159,109,86,44,-26,-81,-142,-131,-127,-144,-130,-141,-160,-141,-146,-146,-159,-177,-167,-180,-185,-192,-183,-182,-199,-206,-190,-196,-205,-205,-224,-233,-232,-215,-218,-239,-251,-230,-245,-252,-246,-252,-247,-264,-267,-256,-256,-272,-272,-268,-286,-282,-273,-266,-269,-264,-284,-269,-288,
839603308113027168:-293,-271,-290,-285,-278,-286,-265,-264,-219,-148,-122,-124,-118,-147,-186,-258,-244,-231,-343,-377,-330,-242,549,1012,1002,537,-200,-915,-1425,-1600,-1423,-897,-198,-186,-179,-169,-160,-180,-152,-148,-164,-160,-143,-98,-25,27,56,123,162,184,197,230,233,230,218,191,152,141,74,24,-2,-60,-135,-132,-106,-128,-120,-124,-115,-112,-136,-140,-144,
839603308674565629:-135,-127,-153,-135,-137,-139,-156,-145,-169,-166,-155,-176,-164,-183,-194,-187,-184,-189,-192,-199,-192,-193,-224,-217,-217,-231,-237,-217,-225,-236,-235,-233,-257,-265,-256,-251,-271,-263,-268,-277,-273,-261,-258,-272,-274,-289,-279,-290,-276,-272,-222,-170,-144,-128,-131,-164,-231,-285,-262,-270,-386,-423,-378,-268,517,969,970,516,-262,-955,-1447,-1649,-1463,
839603309236104090:-941,-221,-238,-232,-219,-213,-226,-201,-196,-192,-205,-188,-127,-70,-27,42,70,115,149,182,184,190,199,196,154,150,97,67,19,-25,-88,-114,-133,-110,-115,-124,-122,-107,-112,-108,-110,-118,-124,-115,-123,-132,-125,-125,-114,-113,-114,-133,-135,-124,-129,-148,-148,-139,-134,-161,-159,-156,-155,-166,-173,-167,-192,-177,-192,-200,-184,-208,-194,
839603309797642551:-220,-202,-222,-230,-217,-213,-224,-230,-237,-232,-235,-249,-256,-263,-263,-262,-275,-251,-271,-212,-162,-124,-121,-142,-180,-222,-270,-277,-268,-395,-442,-397,-292,481,955,957,483,-290,-967,-1473,-1657,-1489,-969,-257,-258,-262,-246,-268,-260,-252,-247,-239,-222,-224,-160,-110,-60,3,35,81,116,137,151,158,164,151,114,98,79,50,-1,-56,-95,
839603310359181012:-150,-149,-138,-145,-148,-128,-142,-126,-147,-131,-136,-125,-113,-123,-117,-118,-136,-128,-111,-105,-106,-109,-111,-118,-123,-110,-118,-121,-133,-114,-143,-117,-124,-143,-144,-140,-142,-132,-161,-167,-163,-166,-161,-180,-159,-168,-189,-194,-180,-186,-193,-199,-208,-197,-217,-217,-205,-212,-228,-237,-223,-192,-127,-105,-85,-125,-160,-196,-248,-248,-268,-386,-430,
839603310920719473:-383,-259,493,975,967,491,-291,-975,-1491,-1683,-1506,-985,-283,-288,-263,-292,-274,-270,-268,-280,-260,-278,-278,-211,-158,-113,-46,-13,39,71,96,96,130,102,106,83,50,42,-11,-60,-98,-134,-184,-199,-178,-184,-171,-169,-184,-175,-157,-152,-155,-140,-167,-133,-132,-135,-131,-146,-138,-134,-117,-126,-139,-113,-128,-125,-120,-113,-128,-113,-126,
839603311482257934:-125,-122,-126,-107,-134,-120,-128,-135,-128,-113,-134,-121,-149,-138,-152,-152,-155,-137,-154,-168,-143,-161,-175,-156,-187,-163,-194,-186,-199,-193,-145,-98,-76,-59,-74,-94,-167,-209,-213,-229,-348,-375,-355,-257,517,993,969,501,-256,-952,-1486,-1663,-1488,-975,-274,-265,-285,-274,-267,-290,-287,-291,-291,-273,-270,-219,-164,-112,-85,-27,19,49,57,
839603312043796395:68,87,84,81,37,26,2,-34,-101,-140,-198,-238,-229,-220,-212,-214,-222,-226,-206,-216,-218,-187,-180,-203,-194,-174,-190,-172,-181,-167,-164,-162,-156,-142,-166,-158,-139,-136,-144,-150,-121,-138,-140,-131,-127,-122,-137,-135,-134,-116,-121,-125,-120,-117,-115,-118,-133,-110,-117,-119,-110,-119,-141,-117,-135,-136,-123,-135,-158,-161,-144,-154,-100,
839603312605334856:-37,-35,-7,-41,-77,-104,-181,-170,-202,-313,-342,-315,-219,555,1037,1011,547,-220,-939,-1438,-1632,-1464,-946,-244,-252,-249,-254,-270,-256,-260,-254,-271,-281,-273,-213,-152,-116,-71,-43,13,46,63,78,80,58,45,43,8,-28,-67,-120,-178,-217,-267,-267,-251,-276,-269,-252,-240,-261,-235,-234,-250,-226,-233,-217,-212,-225,-222,-227,-209,-202,
839603313166873317:-215,-190,-194,-178,-186,-170,-190,-181,-157,-157,-163,-165,-161,-164,-150,-134,-155,-150,-141,-133,-130,-129,-138,-135,-137,-129,-130,-135,-132,-133,-108,-131,-106,-128,-129,-132,-124,-126,-138,-130,-133,-81,-19,11,3,17,-42,-81,-144,-142,-156,-272,-307,-269,-167,584,1059,1073,584,-190,-887,-1389,-1603,-1396,-913,-217,-221,-201,-233,-215,-225,-216,-240,
839603313728411778:-231,-245,-238,-193,-152,-88,-61,0,35,42,53,62,70,72,69,28,-6,-14,-71,-113,-184,-217,-268,-289,-294,-285,-283,-265,-272,-275,-277,-281,-260,-268,-276,-263,-261,-254,-264,-241,-242,-247,-239,-223,-249,-237,-239,-221,-223,-224,-202,-199,-201,-213,-203,-198,-179,-181,-174,-179,-178,-182,-162,-162,-167,-140,-145,-141,-141,-132,-148,-139,-125,
839603314289950239:-124,-125,-118,-132,-129,-130,-112,-130,-126,-114,-77,-21,25,44,30,-27,-75,-120,-124,-122,-230,-288,-222,-140,622,1104,1097,617,-142,-849,-1371,-1542,-1369,-847,-153,-168,-162,-176,-194,-197,-183,-206,-211,-189,-209,-163,-111,-66,-13,20,69,93,101,118,121,114,82,57,35,1,-53,-114,-150,-216,-276,-284,-276,-274,-265,-291,-275,-291,-276,
839603314851488700:-271,-272,-275,-289,-264,-274,-271,-289,-290,-263,-262,-265,-280,-256,-267,-251,-252,-269,-247,-254,-240,-243,-239,-249,-245,-240,-215,-229,-224,-228,-217,-207,-211,-191,-189,-188,-184,-193,-165,-186,-164,-179,-152,-174,-164,-165,-152,-160,-136,-153,-150,-145,-87,-40,-6,9,7,-15,-69,-116,-122,-125,-229,-257,-239,-124,654,1123,1120,657,-120,-821,-1331,
839603315413027161:-1531,-1352,-839,-124,-149,-150,-137,-156,-132,-155,-146,-157,-158,-177,-115,-67,-14,36,57,85,137,152,153,156,151,109,93,73,41,-6,-63,-112,-184,-244,-257,-255,-237,-251,-256,-267,-247,-278,-269,-261,-261,-268,-275,-276,-262,-265,-273,-285,-283,-292,-270,-287,-278,-284,-288,-276,-262,-285,-279,-267,-278,-276,-274,-271,-264,-273,-246,-249,-243,
839603315974565622:-242,-237,-232,-225,-234,-220,-212,-206,-203,-209,-218,-198,-192,-187,-189,-199,-200,-194,-170,-177,-185,-110,-61,-11,-15,-27,-48,-81,-138,-154,-131,-246,-279,-233,-116,623,1125,1120,649,-112,-819,-1317,-1528,-1334,-807,-129,-119,-134,-107,-116,-123,-122,-119,-141,-135,-127,-90,-35,26,76,101,138,165,189,190,182,186,162,138,95,76,20,-40,
839603316536104083:-83,-140,-185,-215,-199,-218,-209,-217,-221,-234,-223,-236,-233,-255,-251,-255,-259,-260,-259,-258,-273,-279,-275,-273,-265,-287,-260,-265,-290,-265,-274,-277,-286,-279,-279,-273,-274,-278,-267,-265,-288,-286,-271,-267,-273,-276,-260,-253,-247,-244,-248,-258,-241,-235,-251,-234,-241,-241,-241,-238,-216,-204,-217,-136,-103,-57,-43,-68,-73,-112,-192,-188,-172,
839603317097642544:-287,-304,-271,-160,617,1084,1097,614,-131,-845,-1338,-1550,-1343,-822,-130,-117,-111,-124,-134,-130,-119,-127,-123,-109,-111,-77,-4,31,88,138,174,176,197,209,205,225,188,170,155,117,56,18,-50,-101,-150,-152,-177,-161,-175,-190,-179,-171,-198,-201,-187,-211,-214,-213,-214,-227,-206,-218,-215,-245,-241,-246,-236,-259,-261,-244,-244,-261,-250,
839603317659181005:-277,-257,-252,-284,-261,-274,-289,-268,-276,-292,-287,-287,-282,-290,-278,-275,-271,-288,-281,-289,-280,-281,-258,-274,-280,-259,-257,-271,-247,-241,-254,-248,-186,-129,-115,-94,-81,-118,-169,-209,-206,-218,-318,-342,-309,-190,583,1038,1048,579,-190,-868,-1368,-1570,-1386,-845,-149,-143,-138,-144,-143,-143,-153,-129,-133,-147,-124,-58,-18,24,70,127,149,
839603318220719466:184,202,224,231,231,211,193,164,114,69,34,-23,-66,-115,-139,-138,-140,-125,-153,-149,-140,-153,-165,-169,-163,-169,-174,-179,-169,-188,-166,-199,-196,-178,-194,-202,-194,-202,-201,-207,-222,-210,-216,-226,-225,-229,-230,-261,-255,-266,-251,-263,-253,-250,-252,-262,-283,-262,-272,-274,-278,-265,-283,-269,-287,-285,-280,-294,-289,-265,-272,-262,-281,
839603318782257927:-271,-228,-161,-144,-120,-141,-150,-202,-273,-262,-263,-363,-387,-357,-231,542,990,1017,551,-223,-926,-1421,-1618,-1408,-904,-199,-187,-188,-173,-178,-187,-185,-175,-178,-173,-158,-103,-52,-2,47,102,129,159,206,219,217,201,195,200,148,124,87,37,-10,-55,-115,-121,-129,-110,-114,-110,-120,-123,-124,-140,-116,-132,-129,-121,-121,-130,-130,-153,
839603319343796388:-137,-145,-153,-148,-165,-170,-167,-170,-180,-181,-194,-178,-182,-196,-201,-209,-220,-206,-209,-203,-207,-240,-239,-229,-226,-240,-237,-245,-239,-263,-271,-252,-257,-268,-264,-271,-276,-280,-274,-277,-274,-262,-272,-211,-181,-139,-132,-154,-187,-221,-267,-281,-276,-384,-430,-366,-263,500,963,959,515,-265,-948,-1462,-1649,-1467,-929,-241,-246,-236,-240,-220,-207,
839603319905334849:-220,-207,-206,-195,-209,-149,-78,-37,10,62,122,128,157,187,201,183,189,168,129,105,68,31,-18,-68,-121,-126,-113,-127,-116,-138,-132,-137,-126,-110,-125,-113,-119,-108,-127,-117,-128,-110,-118,-132,-128,-142,-126,-146,-134,-134,-133,-150,-148,-160,-148,-150,-169,-171,-179,-154,-161,-172,-188,-192,-179,-194,-189,-191,-194,-193,-211,-223,-219,
839603320466873310:-233,-221,-231,-249,-251,-239,-240,-247,-260,-268,-254,-273,-212,-172,-131,-120,-128,-175,-203,-269,-274,-271,-394,-414,-382,-273,485,948,955,491,-280,-968,-1497,-1670,-1469,-977,-269,-256,-252,-256,-258,-256,-247,-242,-256,-234,-256,-189,-129,-80,-11,10,63,105,120,148,147,157,122,130,102,64,32,-2,-58,-102,-177,-150,-169,-149,-139,-145,-153,
839603321028411771:-139,-139,-127,-144,-132,-117,-138,-120,-124,-119,-119,-125,-128,-117,-126,-117,-119,-114,-121,-110,-118,-109,-130,-115,-142,-140,-133,-137,-142,-131,-132,-144,-151,-151,-164,-169,-154,-152,-166,-170,-160,-164,-169,-174,-198,-187,-207,-201,-218,-204,-227,-209,-215,-240,-171,-115,-106,-101,-99,-124,-186,-241,-269,-262,-372,-417,-356,-256,489,970,950,499,-267,
839603321589950232:-984,-1479,-1683,-1485,-978,-288,-287,-270,-289,-275,-285,-284,-262,-259,-258,-272,-226,-149,-94,-47,0,43,54,69,104,115,99,95,78,69,10,-26,-63,-110,-155,-207,-208,-184,-200,-204,-193,-193,-191,-179,-173,-167,-159,-158,-163,-163,-148,-135,-139,-128,-142,-142,-122,-116,-116,-120,-120,-137,-129,-123,-115,-128,-120,-116,-134,-134,-134,-107,-136,
839603322151488693:-132,-129,-135,-141,-119,-145,-129,-132,-138,-150,-131,-157,-136,-153,-161,-171,-154,-174,-161,-161,-172,-177,-170,-114,-94,-54,-42,-53,-112,-144,-220,-233,-230,-331,-376,-334,-238,539,980,974,523,-262,-951,-1473,-1647,-1479,-975,-257,-258,-260,-272,-289,-263,-290,-269,-268,-265,-266,-228,-173,-106,-66,-18,-3,31,69,70,82,66,66,43,20,-3,
839603322713027154:-38,-82,-154,-205,-250,-238,-243,-228,-225,-241,-221,-208,-226,-226,-195,-203,-206,-181,-200,-184,-169,-178,-182,-185,-184,-167,-151,-156,-169,-163,-133,-159,-151,-148,-150,-131,-131,-139,-121,-142,-113,-125,-120,-108,-118,-123,-113,-128,-132,-124,-109,-116,-122,-123,-115,-119,-133,-127,-131,-130,-127,-138,-136,-127,-156,-100,-32,-17,5,-16,-49,-118,-163,
839603323274565615:-187,-171,-287,-337,-308,-181,553,1039,1032,558,-206,-915,-1440,-1625,-1433,-919,-246,-232,-244,-243,-243,-262,-261,-253,-274,-279,-261,-221,-168,-106,-62,-36,21,33,62,68,58,76,48,31,6,-39,-81,-119,-161,-218,-272,-261,-274,-260,-266,-261,-247,-249,-266,-263,-247,-252,-246,-234,-232,-240,-237,-216,-221,-227,-217,-201,-214,-204,-188,-201,-174,
839603323836104076:-193,-184,-184,-181,-177,-149,-168,-168,-151,-143,-138,-143,-146,-130,-121,-130,-140,-145,-121,-125,-134,-110,-119,-134,-117,-133,-127,-108,-121,-124,-117,-127,-125,-115,-58,-33,25,12,17,-40,-79,-140,-126,-150,-252,-284,-257,-155,600,1078,1065,606,-178,-861,-1400,-1581,-1415,-908,-191,-202,-190,-206,-211,-232,-233,-230,-217,-223,-238,-193,-137,-89,-53,
839603324397642537:9,23,68,65,71,80,79,49,25,0,-26,-84,-119,-168,-231,-293,-280,-271,-293,-281,-265,-271,-271,-278,-266,-275,-270,-272,-282,-263,-254,-266,-268,-257,-237,-254,-258,-230,-247,-240,-220,-229,-234,-233,-204,-210,-196,-212,-197,-206,-197,-178,-193,-166,-193,-183,-171,-166,-156,-171,-161,-139,-161,-157,-145,-154,-123,-146,-141,-136,-137,-140,-130,
839603324959180998:-139,-124,-126,-61,-10,10,27,26,-26,-58,-125,-136,-130,-230,-268,-228,-114,621,1119,1093,619,-136,-826,-1370,-1551,-1372,-864,-155,-160,-173,-178,-177,-180,-170,-178,-173,-199,-204,-153,-83,-42,-9,38,61,104,104,102,132,118,91,58,50,-16,-47,-84,-157,-191,-275,-267,-271,-275,-281,-280,-288,-282,-288,-267,-279,-266,-273,-271,-282,-281,
839603325520719459:-263,-266,-286,-290,-287,-287,-278,-266,-263,-275,-251,-264,-257,-260,-246,-254,-255,-235,-234,-231,-216,-213,-231,-211,-216,-215,-203,-198,-208,-201,-198,-194,-169,-168,-177,-163,-159,-173,-175,-143,-146,-155,-137,-160,-156,-74,-38,-3,3,23,-29,-63,-115,-110,-125,-223,-259,-221,-134,645,1121,1109,652,-136,-832,-1320,-1521,-1337,-827,-118,-139,-130,-145,
839603326082257920:-129,-146,-131,-138,-146,-144,-165,-98,-48,-19,21,69,105,143,143,144,164,158,125,104,66,21,-3,-60,-109,-187,-235,-237,-244,-250,-259,-261,-252,-257,-263,-263,-276,-275,-261,-281,-262,-275,-276,-268,-267,-282,-268,-265,-287,-287,-268,-287,-273,-291,-282,-276,-289,-271,-271,-278,-281,-265,-253,-255,-271,-266,-262,-249,-247,-249,-241,-238,-236,
839603326643796381:-233,-221,-227,-216,-202,-201,-215,-196,-191,-180,-202,-200,-174,-176,-124,-73,-25,-21,-11,-42,-95,-156,-152,-146,-238,-293,-236,-135,646,1110,1098,632,-132,-816,-1347,-1516,-1345,-820,-134,-107,-135,-116,-120,-130,-131,-112,-125,-141,-119,-67,-33,18,76,119,130,172,177,197,184,188,170,147,123,69,44,-9,-78,-120,-183,-184,-190,-199,-215,
839603327205334842:-215,-217,-212,-212,-221,-228,-230,-225,-229,-238,-231,-253,-245,-253,-268,-247,-274,-251,-257,-265,-261,-260,-277,-276,-272,-268,-290,-281,-275,-284,-271,-267,-284,-289,-284,-267,-270,-276,-283,-271,-268,-256,-275,-271,-269,-248,-267,-247,-233,-238,-249,-221,-222,-244,-226,-225,-168,-103,-62,-46,-63,-85,-132,-198,-181,-175,-271,-320,-275,-159,596,1070,1077,
839603327766873303:611,-149,-847,-1351,-1554,-1341,-850,-140,-129,-127,-117,-120,-139,-121,-112,-118,-107,-115,-52,-24,33,73,116,150,198,220,210,211,213,208,182,145,107,56,13,-21,-81,-153,-166,-153,-157,-159,-167,-183,-175,-168,-190,-179,-185,-204,-186,-194,-207,-201,-217,-214,-237,-211,-237,-222,-245,-237,-251,-237,-264,-263,-243,-249,-255,-276,-270,-266,-261,
839603328328411764:-259,-270,-290,-265,-270,-268,-277,-282,-278,-277,-287,-265,-282,-269,-264,-285,-284,-276,-260,-256,-270,-280,-274,-275,-264,-204,-139,-106,-92,-103,-121,-176,-239,-229,-216,-313,-374,-303,-209,557,1029,1051,577,-201,-880,-1395,-1566,-1398,-876,-168,-162,-168,-153,-149,-149,-151,-137,-125,-128,-148,-91,-24,31,90,125,151,187,225,224,234,218,227,185,
839603328889950225:161,117,94,26,-26,-59,-127,-120,-137,-116,-130,-130,-136,-143,-135,-144,-145,-157,-148,-172,-171,-160,-168,-177,-165,-192,-174,-175,-207,-206,-210,-207,-214,-206,-209,-206,-231,-226,-236,-237,-240,-256,-232,-252,-254,-249,-247,-254,-264,-251,-255,-272,-260,-258,-283,-286,-286,-289,-271,-272,-270,-271,-274,-293,-265,-288,-285,-220,-173,-140,-123,-118,-163,
839603329451488686:-197,-256,-255,-249,-364,-396,-363,-251,505,982,1011,525,-234,-918,-1448,-1633,-1425,-896,-218,-216,-213,-201,-201,-184,-184,-176,-174,-160,-173,-114,-51,7,59,88,129,164,194,202,207,196,208,176,164,126,84,41,-3,-67,-107,-124,-128,-105,-116,-134,-107,-111,-115,-115,-127,-112,-140,-121,-139,-128,-134,-126,-148,-139,-139,-151,-148,-163,-165,
839603330013027147:-173,-157,-181,-160,-185,-173,-193,-181,-200,-204,-211,-215,-200,-199,-226,-208,-222,-232,-246,-244,-247,-250,-231,-253,-239,-268,-245,-273,-267,-251,-280,-261,-268,-284,-290,-266,-206,-179,-129,-127,-145,-185,-226,-281,-264,-268,-393,-440,-374,-271,479,955,963,485,-268,-953,-1484,-1640,-1456,-954,-241,-255,-227,-238,-231,-237,-214,-219,-209,-219,-218,-149,-102,
839603330574565608:-41,27,50,93,117,157,169,176,186,179,145,131,96,68,21,-26,-71,-148,-135,-126,-127,-136,-129,-128,-132,-132,-134,-117,-119,-106,-105,-107,-117,-120,-108,-107,-107,-132,-120,-111,-117,-116,-141,-119,-133,-124,-155,-130,-150,-152,-164,-143,-148,-151,-156,-172,-189,-173,-197,-197,-205,-199,-200,-187,-207,-225,-225,-216,-237,-212,-230,-230,-250,
839603331136104069:-241,-238,-245,-254,-238,-201,-155,-138,-111,-123,-161,-205,-260,-266,-265,-378,-435,-378,-271,486,956,972,477,-282,-962,-1477,-1678,-1486,-989,-285,-284,-262,-262,-264,-254,-246,-257,-260,-237,-257,-190,-132,-65,-37,1,56,101,126,137,141,123,117,124,94,54,6,-31,-84,-116,-160,-154,-165,-161,-173,-146,-154,-144,-148,-148,-143,-145,-121,-147,
839603331697642530:-130,-114,-124,-121,-109,-114,-108,-109,-124,-128,-111,-114,-126,-121,-134,-121,-127,-113,-139,-118,-128,-115,-119,-143,-150,-139,-138,-141,-159,-164,-159,-169,-170,-159,-179,-183,-166,-171,-196,-177,-197,-189,-204,-202,-206,-220,-225,-174,-105,-89,-96,-99,-125,-198,-243,-250,-249,-348,-408,-375,-260,502,954,954,494,-268,-961,-1479,-1665,-1485,-964,-278,-268,
839603332259180991:-288,-272,-291,-267,-275,-282,-291,-282,-280,-214,-154,-112,-53,-15,9,49,70,103,90,99,75,65,50,7,-31,-78,-107,-172,-204,-211,-201,-197,-212,-185,-186,-181,-170,-183,-182,-166,-159,-178,-171,-162,-146,-145,-157,-134,-150,-137,-129,-135,-147,-127,-134,-125,-114,-114,-132,-127,-135,-108,-120,-116,-115,-134,-126,-136,-112,-116,-131,-119,-113,
839603332820719452:-136,-142,-148,-143,-130,-141,-146,-140,-158,-148,-147,-150,-159,-151,-155,-165,-120,-81,-40,-27,-50,-92,-139,-218,-201,-200,-308,-376,-346,-240,535,994,1012,507,-256,-948,-1461,-1647,-1466,-957,-262,-275,-259,-259,-257,-285,-276,-265,-272,-291,-291,-237,-169,-118,-64,-33,-8,28,49,76,77,81,55,40,21,-5,-62,-108,-148,-214,-242,-249,-258,
839603333382257913:-235,-233,-244,-217,-220,-229,-211,-208,-203,-203,-211,-193,-190,-200,-197,-191,-179,-175,-173,-172,-154,-152,-148,-164,-147,-135,-156,-147,-151,-135,-137,-125,-138,-120,-138,-126,-130,-116,-125,-123,-124,-133,-134,-111,-124,-109,-106,-124,-108,-130,-132,-121,-135,-143,-139,-123,-129,-131,-85,-47,-1,-10,-24,-53,-116,-151,-161,-163,-287,-326,-300,-201,584,
839603333943796374:1039,1023,555,-208,-896,-1426,-1632,-1428,-938,-232,-243,-236,-254,-247,-261,-250,-253,-255,-251,-259,-222,-148,-107,-59,-25,21,22,42,54,82,68,57,41,7,-18,-86,-109,-155,-208,-288,-284,-288,-257,-268,-265,-268,-255,-252,-269,-240,-239,-262,-231,-238,-251,-239,-216,-214,-236,-221,-231,-214,-196,-215,-188,-184,-206,-175,-195,-193,-182,-164,-167,
839603334505334835:-178,-149,-162,-148,-154,-151,-144,-135,-151,-135,-123,-131,-128,-135,-117,-116,-130,-123,-134,-133,-109,-133,-106,-118,-128,-130,-119,-72,-16,2,14,23,-30,-73,-130,-143,-129,-248,-282,-248,-135,603,1084,1070,617,-173,-866,-1382,-1565,-1385,-888,-186,-199,-182,-188,-202,-208,-202,-220,-209,-214,-225,-162,-114,-66,-33,5,43,46,70,88,102,85,
839603335066873296:75,38,4,-12,-65,-107,-181,-225,-289,-293,-272,-293,-294,-274,-275,-268,-282,-274,-272,-276,-267,-258,-273,-265,-268,-252,-249,-274,-254,-259,-243,-238,-233,-243,-227,-248,-245,-217,-214,-212,-224,-196,-208,-202,-194,-194,-179,-196,-184,-193,-175,-170,-173,-179,-166,-171,-153,-146,-150,-139,-150,-151,-148,-132,-127,-134,-122,-141,-137,-80,-30,9,16,
839603335628411757:25,-1,-57,-117,-108,-127,-215,-285,-221,-137,630,1120,1116,648,-134,-832,-1356,-1531,-1367,-855,-138,-145,-168,-157,-155,-170,-167,-162,-162,-178,-171,-147,-74,-43,-8,37,61,111,117,113,125,129,110,65,46,-7,-29,-77,-141,-191,-265,-264,-271,-276,-264,-260,-274,-265,-283,-273,-280,-283,-291,-274,-277,-282,-271,-277,-291,-274,-280,-278,-272,
839603336189950218:-266,-278,-283,-280,-272,-264,-261,-255,-252,-261,-235,-241,-238,-240,-249,-228,-227,-232,-226,-203,-198,-206,-212,-197,-196,-204,-202,-172,-182,-175,-162,-181,-160,-169,-144,-147,-160,-143,-83,-30,5,17,16,-19,-64,-142,-114,-114,-241,-270,-236,-117,644,1130,1124,642,-112,-807,-1343,-1524,-1335,-828,-138,-123,-123,-141,-137,-120,-147,-148,-152,-141,-140,
839603336751488679:-88,-38,-7,36,82,122,146,155,159,155,152,128,113,78,50,10,-50,-114,-150,-207,-216,-229,-219,-230,-251,-244,-241,-237,-265,-254,-257,-253,-252,-277,-256,-283,-284,-259,-287,-279,-279,-287,-277,-282,-273,-275,-283,-293,-274,-268,-289,-274,-286,-279,-282,-268,-268,-259,-272,-256,-259,-267,-261,-257,-230,-257,-232,-249,-231,-214,-233,-207,-231,
839603337313027140:-203,-219,-207,-212,-203,-184,-190,-115,-85,-49,-30,-45,-47,-100,-155,-170,-150,-255,-301,-258,-153,613,1096,1090,645,-118,-825,-1323,-1534,-1323,-818,-110,-109,-130,-122,-130,-115,-115,-124,-109,-113,-125,-61,-30,23,75,107,162,179,203,196,190,193,179,148,111,95,33,-19,-74,-127,-173,-198,-174,-194,-201,-188,-189,-202,-199,-230,-231,-210,
839603337874565601:-225,-238,-248,-241,-249,-254,-243,-242,-264,-243,-275,-272,-269,-274,-272,-275,-271,-287,-273,-279,-281,-270,-281,-270,-266,-267,-274,-267,-291,-264,-264,-275,-277,-261,-263,-260,-271,-279,-258,-256,-250,-254,-239,-236,-242,-242,-225,-222,-221,-164,-126,-71,-71,-57,-105,-143,-212,-192,-187,-307,-344,-291,-169,586,1071,1081,596,-143,-852,-1353,-1541,-1367,-844,
839603338436104062:-124,-121,-138,-119,-124,-131,-133,-126,-136,-119,-111,-70,-2,40,88,141,159,178,222,237,237,234,201,183,152,128,69,29,-14,-85,-158,-158,-154,-154,-166,-151,-158,-151,-185,-165,-171,-182,-192,-202,-193,-209,-192,-212,-210,-225,-210,-226,-235,-234,-227,-248,-234,-240,-249,-256,-239,-250,-255,-248,-268,-274,-271,-263,-282,-269,-281,-275,-264,
839603338997642523:-293,-283,-279,-276,-267,-268,-269,-264,-279,-288,-265,-264,-285,-268,-258,-259,-266,-254,-201,-165,-119,-105,-109,-152,-191,-249,-242,-240,-349,-374,-337,-232,558,1037,1041,563,-195,-884,-1391,-1594,-1401,-879,-182,-185,-158,-167,-174,-160,-152,-139,-148,-140,-153,-72,-37,12,84,114,159,173,215,222,236,217,218,190,166,133,86,51,-22,-80,-124,
839603339559180984:-110,-118,-116,-121,-145,-119,-134,-134,-130,-150,-141,-136,-147,-159,-172,-150,-150,-168,-162,-168,-187,-171,-184,-182,-193,-185,-209,-209,-208,-229,-217,-237,-229,-234,-233,-248,-226,-245,-250,-249,-249,-262,-257,-253,-276,-264,-263,-275,-264,-275,-278,-270,-276,-290,-273,-266,-288,-266,-294,-285,-234,-174,-134,-140,-147,-176,-209,-264,-281,-271,-363,-420,-377,
839603340120719445:-269,506,992,994,507,-238,-931,-1442,-1627,-1447,-926,-205,-212,-211,-216,-205,-196,-205,-180,-198,-190,-179,-111,-72,0,58,85,130,150,195,192,212,216,202,162,152,102,84,18,-22,-82,-121,-137,-126,-129,-132,-127,-126,-120,-118,-118,-124,-108,-114,-137,-128,-124,-135,-129,-121,-140,-140,-143,-159,-150,-154,-140,-159,-163,-150,-175,-166,-177,
839603340682257906:-169,-193,-197,-206,-183,-201,-206,-222,-203,-216,-234,-212,-239,-238,-249,-235,-232,-244,-242,-264,-243,-266,-252,-256,-252,-255,-271,-276,-287,-207,-156,-132,-143,-137,-178,-228,-279,-277,-282,-387,-425,-396,-270,490,953,975,486,-266,-963,-1482,-1658,-1467,-957,-258,-251,-262,-251,-242,-234,-227,-233,-225,-209,-212,-169,-92,-45,18,52,104,134,153,174,
839603341243796367:168,177,163,144,112,97,43,12,-55,-84,-158,-132,-140,-122,-144,-140,-122,-125,-135,-139,-134,-133,-119,-132,-106,-127,-128,-108,-117,-128,-131,-133,-124,-125,-129,-124,-126,-130,-122,-142,-135,-144,-154,-155,-161,-144,-165,-147,-164,-155,-172,-162,-191,-167,-182,-178,-200,-208,-209,-193,-223,-211,-211,-218,-213,-224,-240,-222,-237,-233,-240,-184,-145,
839603341805334828:-102,-102,-117,-154,-201,-277,-272,-282,-392,-430,-393,-272,490,965,947,488,-272,-993,-1488,-1675,-1481,-987,-265,-285,-282,-266,-268,-259,-254,-275,-264,-267,-243,-208,-153,-76,-39,23,36,93,116,125,125,139,112,104,77,31,22,-28,-72,-135,-168,-191,-181,-166,-173,-164,-167,-168,-167,-158,-149,-141,-130,-131,-132,-119,-119,-118,-112,-120,-109,
839603342366873289:-110,-112,-112,-122,-115,-122,-130,-120,-112,-122,-135,-132,-131,-116,-122,-117,-128,-123,-134,-121,-127,-127,-130,-151,-143,-151,-172,-151,-167,-166,-160,-188,-179,-174,-202,-189,-203,-202,-202,-210,-151,-92,-82,-61,-79,-122,-162,-233,-252,-238,-350,-387,-353,-269,512,978,958,493,-255,-956,-1497,-1676,-1482,-975,-290,-266,-283,-285,-292,-293,-287,-285,-287,
839603342928411750:-266,-284,-234,-151,-102,-50,-36,10,56,63,72,80,95,69,71,30,11,-21,-81,-134,-157,-224,-233,-212,-199,-193,-197,-187,-210,-207,-182,-194,-188,-191,-180,-163,-170,-173,-156,-169,-147,-139,-151,-138,-147,-151,-149,-146,-141,-136,-127,-113,-138,-127,-112,-123,-107,-130,-123,-105,-130,-130,-123,-130,-126,-135,-116,-141,-128,-123,-132,-142,-132,
839603343489950211:-127,-137,-158,-145,-166,-150,-155,-166,-159,-116,-79,-24,-18,-44,-89,-133,-211,-200,-191,-305,-355,-328,-234,554,1024,1020,517,-247,-930,-1454,-1638,-1461,-943,-243,-268,-272,-250,-256,-284,-282,-267,-266,-289,-286,-233,-181,-120,-81,-30,0,18,50,82,82,83,63,24,0,-23,-74,-95,-153,-208,-252,-247,-260,-246,-240,-238,-232,-231,-242,-228,
839603344051488672:-212,-224,-218,-218,-223,-208,-200,-189,-201,-189,-179,-175,-189,-187,-186,-160,-178,-159,-156,-142,-157,-160,-154,-145,-131,-140,-146,-144,-144,-136,-122,-137,-136,-112,-106,-134,-108,-117,-118,-130,-126,-128,-117,-125,-133,-134,-112,-122,-139,-135,-118,-73,-23,12,20,5,-46,-102,-163,-155,-149,-272,-316,-281,-175,568,1060,1043,576,-193,-900,-1410,-1596,
839603344613027133:-1440,-930,-214,-236,-223,-219,-241,-251,-248,-261,-236,-251,-248,-213,-142,-94,-60,-32,6,43,55,55,81,69,64,22,11,-39,-62,-110,-168,-231,-276,-292,-290,-283,-259,-268,-261,-272,-253,-274,-274,-260,-268,-237,-238,-259,-234,-240,-233,-233,-236,-225,-206,-210,-222,-221,-208,-192,-197,-178,-203,-187,-176,-177,-166,-167,-158,-178,-152,-167,-145,
839603345174565594:-157,-144,-142,-130,-125,-140,-146,-119,-115,-115,-118,-127,-123,-119,-123,-131,-122,-112,-117,-135,-76,-29,9,16,17,-20,-74,-133,-143,-131,-250,-290,-257,-139,622,1088,1099,619,-147,-869,-1384,-1574,-1390,-874,-166,-197,-178,-187,-208,-211,-203,-194,-210,-220,-203,-175,-132,-57,-37,14,54,78,87,83,112,78,69,35,20,-21,-53,-106,-177,
839603345736104055:-223,-290,-278,-281,-284,-279,-292,-277,-279,-271,-289,-272,-290,-277,-278,-288,-271,-281,-275,-268,-262,-277,-261,-246,-260,-257,-257,-237,-246,-246,-244,-216,-217,-233,-204,-202,-221,-210,-210,-192,-196,-192,-186,-170,-194,-179,-160,-159,-163,-162,-164,-144,-158,-158,-133,-128,-136,-124,-124,-118,-117,-134,-71,-33,4,26,32,-28,-76,-112,-116,-126,-217,
839603346297642516:-256,-217,-111,633,1127,1106,650,-123,-828,-1342,-1534,-1353,-852,-151,-139,-153,-164,-163,-144,-172,-162,-157,-170,-167,-110,-65,-14,-1,48,97,116,114,143,127,121,111,74,66,21,-27,-82,-123,-194,-247,-257,-268,-245,-270,-258,-254,-274,-278,-269,-282,-282,-291,-265,-293,-272,-275,-292,-276,-276,-290,-270,-270,-280,-289,-279,-258,-276,-282,-254,
839603346859180977:-272,-255,-269,-241,-247,-259,-256,-242,-255,-248,-221,-238,-212,-226,-217,-217,-217,-221,-190,-200,-193,-183,-188,-196,-184,-180,-166,-171,-168,-155,-152,-89,-28,-14,-6,0,-31,-69,-132,-134,-134,-240,-274,-225,-113,644,1117,1117,654,-132,-814,-1346,-1528,-1342,-826,-110,-116,-121,-125,-131,-132,-127,-138,-125,-148,-141,-80,-47,1,44,85,125,146,
839603347420719438:165,173,176,159,147,126,81,45,-2,-53,-101,-160,-222,-205,-210,-225,-219,-231,-243,-251,-232,-261,-247,-256,-266,-268,-246,-262,-277,-267,-272,-257,-271,-286,-264,-287,-265,-292,-279,-293,-271,-275,-274,-267,-263,-284,-263,-277,-282,-284,-278,-253,-279,-271,-251,-262,-258,-262,-247,-250,-243,-243,-244,-245,-222,-222,-222,-231,-224,-210,-211,-209,-207,
839603347982257899:-129,-87,-60,-16,-42,-72,-109,-153,-177,-162,-275,-306,-240,-149,635,1101,1083,636,-138,-845,-1346,-1534,-1329,-827,-120,-127,-123,-109,-130,-105,-106,-112,-117,-108,-121,-72,-5,44,65,113,161,189,209,199,204,199,174,165,118,88,62,-15,-59,-103,-159,-185,-182,-168,-198,-180,-185,-200,-194,-192,-213,-215,-206,-229,-240,-232,-233,-250,-232,
839603348543796360:-252,-245,-249,-247,-270,-262,-250,-267,-270,-253,-266,-275,-283,-263,-290,-276,-290,-267,-286,-265,-287,-273,-276,-290,-282,-273,-290,-284,-265,-282,-280,-272,-264,-253,-245,-262,-257,-256,-237,-259,-230,-238,-187,-119,-79,-72,-82,-98,-157,-196,-201,-195,-306,-349,-285,-178,580,1054,1077,592,-168,-861,-1364,-1561,-1375,-844,-137,-136,-148,-127,-131,-136,-145,
839603349105334821:-126,-116,-110,-135,-54,-8,28,86,112,151,178,207,226,231,210,196,180,151,113,67,30,-38,-79,-147,-139,-128,-140,-133,-164,-153,-161,-151,-167,-175,-162,-179,-180,-199,-180,-198,-193,-198,-216,-213,-211,-204,-223,-210,-241,-230,-233,-253,-245,-236,-263,-262,-248,-263,-269,-269,-260,-272,-266,-264,-266,-282,-267,-277,-273,-288,-267,-287,-279,
839603349666873282:-277,-271,-271,-285,-263,-274,-271,-261,-279,-265,-258,-210,-172,-120,-122,-106,-132,-192,-238,-248,-226,-344,-384,-322,-225,527,1012,1033,542,-199,-900,-1412,-1599,-1406,-890,-189,-174,-168,-181,-165,-159,-161,-151,-152,-138,-136,-98,-42,8,82,113,154,168,203,214,222,230,211,205,153,142,96,51,1,-56,-130,-114,-109,-125,-126,-138,-139,-132,
839603350228411743:-131,-134,-144,-146,-141,-145,-135,-162,-153,-163,-160,-149,-169,-180,-170,-181,-190,-193,-198,-201,-198,-197,-211,-206,-217,-220,-231,-234,-222,-241,-233,-240,-237,-250,-250,-261,-245,-271,-252,-266,-264,-280,-270,-266,-271,-274,-279,-274,-268,-273,-284,-269,-282,-211,-185,-125,-117,-123,-171,-217,-265,-286,-265,-362,-408,-357,-255,506,989,995,521,-250,-938,
839603350789950204:-1465,-1647,-1449,-924,-228,-207,-232,-201,-199,-212,-197,-189,-188,-201,-179,-114,-53,-6,39,85,136,141,180,194,198,210,190,184,153,118,87,24,-21,-60,-119,-116,-134,-122,-108,-134,-135,-133,-131,-119,-116,-134,-106,-113,-117,-133,-117,-139,-125,-147,-127,-134,-154,-154,-144,-133,-164,-139,-172,-149,-159,-162,-168,-179,-192,-187,-197,-183,-206,
839603351351488665:-191,-195,-221,-213,-205,-216,-221,-228,-234,-221,-227,-248,-251,-242,-242,-261,-245,-267,-255,-256,-261,-266,-197,-152,-145,-137,-132,-184,-217,-280,-270,-294,-394,-438,-374,-290,480,947,952,475,-259,-971,-1474,-1672,-1462,-960,-255,-260,-252,-246,-236,-230,-237,-243,-225,-232,-224,-172,-101,-62,1,34,66,104,130,142,155,163,161,130,110,78,46,
839603351913027126:-15,-59,-111,-153,-136,-143,-154,-143,-139,-145,-122,-135,-114,-124,-110,-112,-108,-131,-115,-114,-118,-106,-114,-122,-107,-125,-125,-114,-139,-121,-142,-140,-145,-119,-131,-148,-144,-145,-135,-154,-139,-143,-145,-175,-164,-164,-188,-162,-177,-191,-188,-201,-208,-212,-200,-219,-214,-205,-208,-229,-234,-227,-225,-224,-185,-142,-105,-114,-110,-135,-197,-248,-277,
839603352474565587:-254,-378,-415,-379,-275,494,957,967,495,-272,-969,-1486,-1677,-1503,-973,-279,-279,-267,-283,-261,-266,-265,-272,-254,-253,-268,-217,-138,-80,-50,-4,25,84,101,99,124,134,98,78,58,24,13,-41,-93,-132,-175,-189,-168,-184,-184,-157,-155,-157,-152,-156,-151,-144,-133,-130,-132,-152,-144,-139,-138,-121,-127,-135,-136,-125,-131,-133,-132,-131,
839603353036104048:-113,-125,-119,-134,-132,-109,-116,-122,-119,-123,-133,-120,-130,-141,-143,-149,-149,-138,-144,-147,-147,-170,-172,-160,-157,-164,-185,-183,-169,-195,-183,-195,-185,-132,-109,-60,-53,-86,-120,-161,-217,-226,-243,-353,-391,-353,-247,504,992,985,516,-271,-975,-1472,-1657,-1477,-981,-285,-281,-275,-277,-274,-286,-276,-288,-280,-273,-265,-221,-177,-113,-60,-22,
839603353597642509:14,34,73,89,91,80,59,55,26,0,-27,-92,-138,-170,-224,-219,-234,-213,-223,-217,-204,-216,-200,-206,-195,-189,-174,-180,-176,-179,-173,-180,-156,-174,-147,-158,-147,-137,-156,-149,-133,-138,-133,-120,-130,-128,-110,-109,-115,-124,-107,-119,-117,-109,-115,-129,-123,-124,-122,-110,-120,-135,-116,-131,-139,-126,-147,-130,-134,-151,-155,-159,-156,
839603354159180970:-140,-159,-96,-42,-25,-30,-36,-83,-115,-197,-205,-186,-297,-360,-308,-226,561,1015,1014,548,-225,-943,-1436,-1631,-1441,-960,-248,-265,-255,-257,-250,-266,-262,-264,-268,-271,-261,-214,-181,-111,-87,-20,17,22,57,57,56,61,53,20,23,-12,-58,-114,-156,-215,-255,-266,-256,-260,-243,-250,-253,-231,-233,-235,-224,-236,-223,-211,-228,-212,-208,
839603354720719431:-206,-196,-197,-209,-187,-179,-178,-192,-189,-180,-166,-178,-164,-160,-147,-144,-140,-134,-135,-142,-129,-123,-120,-118,-122,-114,-140,-121,-123,-110,-116,-116,-113,-134,-117,-117,-135,-126,-137,-110,-122,-130,-127,-136,-66,-14,-9,-1,-2,-30,-79,-162,-161,-144,-259,-313,-263,-169,584,1060,1066,580,-193,-904,-1408,-1611,-1430,-913,-201,-203,-235,-230,-242,
839603355282257892:-238,-234,-233,-233,-247,-243,-210,-152,-88,-41,-28,30,38,51,87,73,74,56,27,15,-40,-70,-121,-170,-212,-270,-282,-279,-264,-263,-275,-283,-284,-256,-279,-256,-267,-276,-251,-263,-264,-252,-255,-237,-244,-242,-224,-227,-228,-207,-213,-225,-207,-208,-214,-209,-203,-196,-197,-190,-171,-176,-174,-165,-167,-175,-166,-143,-150,-140,-134,-136,-138,
839603355843796353:-146,-126,-135,-135,-117,-116,-120,-138,-112,-113,-118,-122,-105,-62,-4,27,32,6,-4,-62,-122,-111,-124,-235,-295,-249,-134,616,1090,1107,604,-137,-864,-1367,-1563,-1365,-866,-175,-178,-187,-170,-170,-184,-200,-205,-198,-198,-218,-160,-116,-76,-24,19,49,83,81,97,89,107,72,57,33,-2,-45,-115,-158,-223,-286,-285,-270,-266,-267,-272,
839603356405334814:-276,-271,-283,-266,-283,-278,-264,-266,-274,-282,-272,-282,-283,-265,-278,-262,-254,-248,-271,-258,-247,-264,-244,-231,-247,-237,-244,-239,-222,-221,-212,-227,-218,-197,-189,-200,-197,-195,-183,-183,-174,-185,-182,-176,-160,-148,-145,-157,-147,-144,-131,-151,-128,-124,-124,-78,-9,20,24,5,-7,-67,-115,-120,-108,-212,-262,-216,-125,635,1119,1110,630,
839603356966873275:-134,-810,-1351,-1541,-1339,-823,-150,-135,-148,-150,-149,-156,-167,-152,-157,-150,-168,-119,-54,-21,19,58,92,122,121,146,134,125,124,79,53,9,-29,-69,-120,-172,-239,-251,-261,-253,-247,-246,-248,-256,-251,-265,-262,-286,-283,-275,-270,-282,-290,-291,-287,-291,-284,-277,-273,-292,-272,-270,-273,-285,-282,-283,-270,-254,-262,-256,-269,-259,-244,
839603357528411736:-252,-244,-249,-238,-248,-232,-216,-214,-225,-206,-228,-227,-222,-219,-203,-209,-185,-189,-169,-183,-190,-171,-155,-174,-104,-62,-19,-4,-7,-40,-72,-127,-125,-142,-240,-279,-244,-118,625,1109,1102,658,-114,-821,-1326,-1530,-1324,-818,-132,-109,-125,-119,-126,-120,-128,-141,-145,-138,-142,-79,-44,9,59,99,123,148,159,187,173,168,156,131,109,
839603358089950197:72,30,-46,-100,-143,-201,-213,-207,-225,-223,-231,-222,-227,-250,-241,-249,-248,-257,-253,-239,-269,-260,-259,-257,-272,-261,-269,-283,-277,-263,-287,-264,-270,-286,-291,-283,-267,-269,-271,-292,-273,-271,-272,-279,-276,-280,-267,-279,-259,-261,-247,-244,-258,-259,-260,-246,-249,-223,-239,-241,-241,-217,-224,-224,-195,-202,-130,-84,-58,-48,-51,-82,-109,
839603358651488658:-164,-167,-171,-272,-318,-258,-143,625,1099,1100,628,-130,-831,-1345,-1518,-1330,-830,-138,-129,-112,-135,-107,-112,-120,-118,-122,-119,-111,-62,-13,46,85,109,150,183,197,201,216,215,195,184,140,88,57,8,-58,-118,-167,-168,-158,-172,-172,-185,-178,-184,-203,-190,-212,-197,-210,-219,-230,-215,-211,-218,-227,-250,-252,-243,-241,-234,-264,-251,
839603359213027119:-255,-262,-272,-267,-268,-256,-282,-281,-265,-276,-290,-284,-272,-291,-291,-288,-293,-264,-272,-280,-285,-289,-283,-276,-285,-273,-276,-263,-268,-265,-259,-250,-267,-252,-249,-195,-120,-82,-84,-74,-105,-171,-205,-207,-197,-313,-336,-303,-190,583,1062,1054,598,-177,-876,-1375,-1577,-1382,-845,-167,-151,-143,-148,-133,-125,-125,-138,-128,-118,-141,-55,-17,21,
839603359774565580:77,116,150,177,220,218,219,239,213,205,168,137,76,36,-11,-77,-117,-130,-122,-145,-141,-133,-135,-147,-145,-147,-162,-150,-158,-162,-173,-188,-197,-188,-187,-199,-208,-194,-215,-209,-211,-218,-208,-218,-220,-245,-252,-232,-252,-238,-241,-245,-260,-249,-252,-269,-262,-278,-262,-260,-289,-280,-268,-268,-276,-284,-266,-279,-274,-269,-265,-265,-278,
839603360336104041:-279,-276,-274,-276,-203,-158,-125,-103,-115,-167,-213,-265,-258,-263,-359,-377,-358,-235,540,1023,1018,537,-225,-921,-1424,-1616,-1420,-887,-206,-197,-185,-194,-162,-171,-182,-167,-164,-167,-142,-89,-32,13,53,105,147,168,215,206,216,215,197,197,152,116,90,31,3,-69,-131,-116,-106,-106,-127,-125,-118,-140,-136,-125,-137,-148,-140,-146,-139,
839603360897642502:-142,-134,-148,-139,-155,-154,-162,-161,-156,-183,-185,-182,-178,-203,-191,-207,-208,-190,-220,-217,-221,-216,-225,-221,-222,-236,-228,-241,-243,-238,-246,-251,-243,-258,-272,-267,-279,-270,-262,-278,-260,-291,-276,-263,-284,-293,-222,-186,-138,-115,-147,-174,-213,-269,-288,-267,-370,-424,-387,-260,489,972,963,497,-259,-935,-1450,-1652,-1460,-946,-218,-234,-233,
839603361459180963:-229,-228,-224,-208,-203,-188,-195,-188,-144,-76,-17,22,62,111,153,169,182,193,193,175,153,146,119,77,16,-32,-85,-138,-125,-128,-128,-128,-119,-107,-111,-131,-121,-110,-122,-126,-110,-133,-137,-110,-124,-127,-130,-119,-128,-118,-127,-148,-137,-153,-139,-162,-163,-145,-170,-168,-174,-181,-166,-190,-195,-190,-191,-205,-212,-192,-200,-208,-224,
839603362020719424:-222,-216,-225,-217,-239,-226,-230,-248,-236,-260,-252,-259,-257,-261,-253,-198,-157,-124,-117,-148,-180,-206,-281,-271,-269,-389,-424,-370,-268,499,961,948,485,-291,-959,-1488,-1657,-1479,-978,-273,-261,-251,-262,-247,-254,-235,-237,-245,-235,-228,-171,-125,-69,-16,36,77,111,122,144,149,161,151,114,102,66,44,-11,-49,-113,-164,-166,-154,-158,
839603362582257885:-135,-148,-143,-145,-134,-119,-133,-133,-121,-118,-122,-123,-113,-116,-122,-114,-105,-124,-131,-107,-131,-132,-119,-120,-129,-119,-141,-121,-118,-147,-146,-145,-155,-141,-142,-152,-152,-148,-160,-153,-163,-164,-173,-167,-175,-185,-185,-207,-196,-212,-192,-221,-202,-211,-236,-218,-235,-173,-140,-92,-90,-106,-150,-199,-255,-260,-274,-383,-402,-389,-284,477,976,
839603363143796346:957,500,-284,-982,-1489,-1681,-1484,-985,-273,-283,-277,-281,-289,-278,-273,-285,-283,-258,-272,-202,-144,-101,-55,0,24,59,74,118,97,119,93,79,54,36,4,-62,-95,-155,-207,-182,-200,-191,-193,-187,-175,-162,-169,-180,-166,-161,-167,-141,-160,-158,-128,-129,-132,-130,-142,-128,-130,-141,-115,-112,-127,-107,-111,-115,-130,-130,-135,-122,-112,
839603363705334807:-123,-126,-125,-114,-138,-137,-120,-121,-125,-140,-149,-134,-137,-157,-140,-167,-163,-147,-158,-175,-161,-174,-162,-168,-197,-193,-145,-83,-68,-56,-70,-102,-165,-226,-238,-233,-348,-389,-333,-251,514,991,997,507,-254,-953,-1482,-1663,-1483,-984,-257,-285,-287,-283,-267,-292,-281,-277,-277,-274,-264,-227,-165,-106,-71,-30,6,47,62,89,92,66,80,
839603364266873268:63,30,-14,-48,-78,-147,-181,-253,-227,-221,-235,-218,-225,-229,-214,-200,-197,-206,-193,-196,-184,-190,-190,-186,-188,-157,-177,-174,-173,-152,-161,-157,-162,-132,-149,-140,-125,-144,-146,-124,-119,-120,-139,-136,-133,-132,-121,-123,-109,-131,-115,-108,-110,-113,-122,-132,-138,-130,-135,-118,-128,-131,-143,-124,-139,-131,-144,-145,-104,-37,-20,-17,-37,
839603364828411729:-57,-101,-163,-192,-178,-287,-340,-307,-190,571,1036,1024,532,-229,-915,-1453,-1628,-1459,-945,-257,-252,-241,-265,-258,-273,-269,-263,-268,-283,-270,-225,-173,-105,-62,-20,4,18,67,80,81,73,62,26,19,-35,-66,-131,-164,-212,-282,-279,-276,-262,-272,-263,-269,-264,-245,-258,-245,-236,-241,-243,-241,-236,-210,-229,-214,-216,-217,-216,-211,-182,
839603365389950190:-175,-180,-193,-167,-169,-181,-176,-151,-155,-160,-161,-136,-156,-140,-126,-145,-122,-137,-126,-134,-126,-136,-135,-129,-119,-129,-112,-126,-126,-109,-126,-118,-132,-133,-113,-118,-135,-78,-20,18,5,9,-15,-91,-157,-132,-140,-242,-312,-266,-174,588,1062,1063,594,-194,-876,-1399,-1580,-1422,-887,-190,-194,-198,-214,-214,-211,-227,-226,-228,-242,-253,-189,
839603365951488651:-136,-94,-33,-18,13,41,62,92,76,84,55,48,20,-30,-72,-117,-177,-230,-282,-278,-270,-288,-282,-283,-279,-263,-276,-269,-260,-280,-261,-259,-264,-268,-263,-260,-261,-260,-252,-244,-245,-223,-231,-237,-233,-220,-206,-223,-197,-208,-185,-199,-203,-189,-193,-189,-189,-171,-173,-179,-168,-152,-143,-147,-163,-137,-154,-145,-125,-142,-133,-125,-128,
839603366513027112:-114,-119,-113,-116,-114,-112,-51,-15,14,18,28,-23,-67,-117,-132,-121,-219,-285,-220,-116,638,1099,1108,618,-145,-829,-1352,-1544,-1367,-866,-169,-178,-181,-187,-192,-165,-178,-188,-204,-193,-205,-152,-85,-49,-20,12,72,85,94,123,124,116,79,62,24,-5,-43,-97,-148,-223,-262,-259,-284,-266,-271,-289,-289,-280,-268,-285,-272,-286,-294,
839603367074565573:-271,-292,-278,-286,-270,-278,-288,-269,-282,-262,-276,-267,-269,-253,-248,-241,-257,-240,-246,-247,-245,-235,-231,-212,-218,-211,-227,-195,-204,-200,-190,-188,-202,-190,-197,-181,-180,-174,-177,-167,-154,-152,-168,-149,-132,-158,-147,-151,-77,-26,20,35,1,-29,-56,-133,-125,-128,-216,-256,-216,-131,635,1121,1123,657,-122,-807,-1340,-1512,-1346,-831,-144,
839603367636104034:-132,-124,-139,-147,-157,-140,-141,-139,-169,-157,-109,-56,-15,22,66,105,127,137,165,167,131,132,108,77,15,-22,-63,-125,-173,-226,-229,-246,-251,-247,-245,-244,-249,-256,-274,-254,-277,-262,-258,-285,-288,-276,-290,-279,-283,-268,-279,-294,-282,-286,-279,-274,-272,-265,-264,-266,-267,-275,-256,-255,-257,-271,-251,-254,-240,-261,-255,-232,-239,
839603368197642495:-238,-232,-230,-210,-213,-205,-199,-194,-195,-202,-207,-198,-193,-177,-168,-171,-179,-123,-55,-19,-21,-12,-60,-90,-146,-141,-150,-229,-282,-254,-145,623,1124,1096,651,-124,-815,-1332,-1528,-1347,-811,-113,-133,-127,-131,-117,-132,-115,-111,-120,-124,-133,-91,-17,10,65,101,134,174,176,184,182,192,154,144,96,71,21,-26,-92,-121,-191,-185,
839603368759180956:-202,-199,-214,-200,-226,-236,-235,-220,-238,-232,-245,-239,-232,-255,-258,-249,-263,-250,-260,-278,-274,-284,-275,-270,-283,-269,-287,-284,-286,-291,-289,-265,-279,-290,-275,-279,-284,-265,-266,-267,-262,-263,-257,-257,-272,-256,-261,-246,-248,-240,-243,-233,-232,-238,-232,-231,-237,-233,-216,-146,-110,-68,-42,-46,-73,-139,-191,-185,-177,-288,-308,-257,-174,
839603369320719417:619,1084,1072,602,-135,-855,-1355,-1542,-1348,-833,-130,-143,-141,-124,-118,-116,-134,-132,-113,-123,-105,-69,-3,37,86,123,152,186,219,217,226,215,189,163,151,106,49,19,-32,-96,-167,-163,-152,-169,-174,-162,-174,-173,-184,-186,-195,-204,-215,-206,-219,-208,-204,-206,-213,-225,-220,-237,-238,-247,-246,-243,-265,-252,-254,-257,-256,-278,-267,
839603369882257878:-274,-266,-280,-259,-283,-272,-275,-273,-275,-291,-289,-277,-293,-288,-283,-273,-270,-269,-284,-258,-284,-278,-255,-265,-270,-245,-264,-252,-185,-125,-114,-97,-88,-119,-181,-221,-213,-206,-331,-359,-313,-208,579,1052,1049,576,-196,-869,-1381,-1568,-1372,-848,-160,-165,-166,-163,-135,-150,-154,-127,-133,-127,-127,-70,-14,20,89,131,167,178,200,233,235,
839603370443796339:221,214,202,167,111,81,38,-27,-61,-134,-141,-136,-143,-121,-124,-135,-156,-146,-164,-153,-168,-163,-171,-175,-162,-188,-168,-168,-177,-203,-196,-204,-216,-201,-206,-210,-226,-209,-240,-231,-234,-222,-251,-255,-236,-261,-242,-260,-244,-261,-250,-255,-276,-255,-278,-261,-283,-274,-273,-291,-282,-287,-280,-283,-275,-267,-285,-287,-265,-265,-204,-159,-127,
839603371005334800:-120,-116,-159,-219,-262,-252,-251,-359,-410,-341,-233,536,989,999,528,-215,-904,-1425,-1618,-1411,-905,-192,-206,-188,-177,-177,-171,-171,-178,-174,-162,-174,-98,-57,6,64,95,142,171,197,216,202,218,193,198,154,135,68,32,-10,-78,-123,-113,-111,-122,-122,-108,-113,-121,-116,-138,-133,-142,-122,-134,-135,-134,-140,-157,-133,-141,-138,-147,
839603371566873261:-156,-160,-157,-174,-179,-171,-182,-191,-199,-200,-180,-206,-201,-201,-223,-215,-231,-224,-217,-229,-238,-232,-246,-255,-236,-266,-248,-259,-253,-247,-264,-254,-254,-275,-270,-284,-289,-285,-263,-205,-187,-131,-115,-146,-162,-222,-292,-278,-289,-392,-430,-376,-282,507,969,964,491,-258,-948,-1467,-1665,-1458,-956,-239,-226,-231,-220,-235,-211,-215,-228,-220,-216,
839603372128411722:-209,-129,-87,-27,16,68,111,141,155,166,178,192,164,146,137,111,66,31,-37,-80,-141,-145,-115,-119,-139,-137,-128,-114,-109,-108,-111,-108,-105,-126,-128,-113,-132,-126,-124,-139,-132,-132,-117,-128,-142,-126,-131,-136,-151,-143,-161,-157,-167,-159,-160,-172,-179,-161,-182,-174,-173,-185,-201,-211,-189,-211,-193,-215,-211,-217,-223,-228,-221,
839603372689950183:-223,-230,-251,-247,-234,-248,-241,-261,-217,-143,-116,-118,-138,-179,-206,-286,-269,-262,-376,-416,-373,-267,495,944,962,500,-271,-971,-1481,-1687,-1483,-971,-264,-276,-276,-264,-269,-249,-248,-251,-237,-254,-250,-181,-127,-62,-23,17,53,97,106,137,147,132,126,116,104,68,24,-32,-68,-117,-166,-157,-168,-146,-143,-154,-154,-135,-154,-147,-128,
839603373251488644:-122,-131,-131,-121,-125,-114,-108,-108,-115,-127,-106,-131,-134,-127,-133,-105,-123,-117,-110,-116,-128,-138,-131,-132,-128,-148,-141,-142,-143,-142,-165,-147,-161,-166,-158,-180,-174,-164,-186,-178,-199,-199,-191,-185,-192,-197,-221,-204,-223,-212,-159,-134,-99,-84,-104,-142,-175,-255,-266,-267,-371,-413,-356,-273,500,953,953,498,-290,-962,-1504,-1685,-1496,
839603373813027105:-990,-266,-275,-271,-269,-280,-281,-274,-286,-268,-265,-265,-207,-155,-102,-59,-22,18,59,89,86,100,98,101,89,38,33,-22,-61,-111,-166,-221,-208,-193,-188,-207,-193,-172,-169,-167,-188,-184,-175,-147,-160,-161,-161,-142,-149,-130,-145,-137,-130,-121,-121,-124,-139,-124,-111,-111,-133,-132,-106,-131,-110,-108,-122,-107,-121,-127,-122,-124,-126,
839603374374565566:-126,-129,-134,-123,-141,-137,-143,-152,-136,-139,-140,-151,-154,-163,-153,-180,-172,-177,-186,-134,-70,-62,-56,-66,-85,-138,-225,-215,-217,-339,-364,-337,-246,524,991,981,524,-236,-947,-1474,-1662,-1467,-951,-266,-279,-274,-272,-288,-283,-262,-263,-270,-280,-284,-230,-155,-106,-86,-30,7,25,45,67,80,77,69,46,29,-6,-56,-112,-146,-183,
839603374936104027:-253,-253,-242,-234,-242,-246,-228,-231,-220,-215,-225,-216,-213,-188,-210,-189,-195,-181,-168,-180,-166,-157,-154,-160,-150,-146,-165,-143,-138,-138,-146,-143,-126,-147,-140,-135,-117,-124,-137,-114,-107,-114,-131,-125,-122,-105,-113,-114,-110,-118,-118,-128,-138,-126,-129,-130,-137,-125,-128,-151,-148,-85,-54,-28,-17,-30,-70,-119,-157,-178,-184,-292,-341,
839603375497642488:-280,-198,561,1027,1021,546,-204,-923,-1439,-1612,-1445,-917,-227,-237,-257,-258,-237,-251,-251,-266,-256,-268,-272,-210,-154,-99,-74,-33,7,34,65,57,85,60,40,29,6,-38,-83,-120,-155,-208,-276,-282,-284,-275,-254,-262,-276,-258,-243,-252,-255,-249,-233,-255,-236,-228,-238,-238,-212,-228,-205,-207,-209,-198,-209,-203,-194,-183,-197,-185,-159,
839603376059180949:-168,-178,-151,-170,-158,-138,-151,-132,-141,-156,-124,-145,-140,-144,-118,-124,-123,-117,-122,-121,-136,-108,-124,-121,-118,-113,-125,-133,-108,-115,-72,-15,-2,9,17,-33,-72,-132,-126,-147,-253,-300,-269,-138,604,1073,1087,606,-171,-871,-1385,-1597,-1411,-877,-205,-212,-216,-196,-214,-201,-213,-214,-240,-222,-230,-187,-131,-97,-33,-10,38,70,66,
839603376620719410:98,100,64,60,34,-1,-31,-58,-131,-159,-225,-273,-284,-278,-266,-290,-268,-280,-266,-284,-266,-280,-275,-286,-275,-265,-259,-254,-272,-248,-252,-246,-248,-259,-239,-243,-222,-239,-241,-220,-223,-209,-212,-224,-198,-213,-188,-191,-176,-173,-189,-174,-167,-166,-171,-176,-167,-154,-159,-149,-132,-150,-137,-153,-148,-141,-146,-144,-119,-121,-112,-121,-51,
839603377182257871:-12,12,24,19,-25,-52,-108,-110,-116,-226,-261,-246,-119,629,1117,1112,621,-143,-835,-1346,-1552,-1367,-862,-139,-150,-176,-156,-159,-157,-175,-185,-185,-195,-191,-144,-105,-30,-1,34,60,79,108,129,130,108,89,70,32,-5,-47,-84,-137,-200,-262,-257,-264,-255,-284,-257,-262,-279,-278,-274,-279,-267,-265,-267,-281,-288,-264,-287,-277,-288,
839603377743796332:-275,-273,-281,-280,-273,-277,-268,-269,-245,-258,-269,-260,-253,-251,-234,-236,-220,-236,-239,-237,-210,-208,-208,-207,-216,-213,-200,-194,-188,-173,-179,-187,-163,-183,-153,-157,-150,-156,-143,-146,-158,-92,-43,4,15,14,-34,-61,-127,-128,-139,-221,-284,-220,-123,630,1129,1108,654,-133,-823,-1348,-1519,-1325,-832,-117,-132,-117,-124,-137,-140,-126,-149,
839603378305334793:-151,-160,-150,-96,-47,-11,50,82,103,145,152,166,174,162,129,110,89,32,-2,-65,-96,-155,-230,-220,-248,-242,-233,-259,-236,-257,-260,-272,-265,-276,-268,-274,-267,-257,-277,-275,-263,-282,-275,-286,-291,-269,-270,-277,-270,-267,-265,-292,-275,-286,-281,-287,-272,-256,-256,-269,-258,-245,-269,-256,-241,-259,-257,-227,-228,-235,-228,-215,-210,
839603378866873254:-214,-216,-217,-217,-203,-187,-204,-182,-179,-170,-113,-55,-38,-25,-33,-39,-102,-146,-145,-153,-240,-303,-234,-144,632,1109,1115,637,-114,-828,-1342,-1516,-1335,-807,-110,-105,-121,-105,-134,-121,-132,-125,-134,-109,-119,-79,-25,25,87,123,154,166,190,208,189,203,172,140,112,79,42,-13,-72,-122,-177,-199,-198,-185,-188,-205,-208,-208,-208,
839603379428411715:-218,-221,-238,-243,-245,-231,-253,-261,-260,-259,-269,-246,-256,-270,-256,-259,-276,-264,-284,-277,-273,-279,-273,-271,-271,-269,-276,-281,-286,-271,-280,-275,-290,-265,-281,-273,-282,-260,-256,-249,-269,-251,-258,-261,-242,-247,-241,-253,-230,-243,-233,-221,-148,-113,-66,-57,-81,-99,-131,-186,-183,-185,-274,-333,-277,-171,583,1075,1083,607,-137,-837,-1357,
839603379989950176:-1556,-1338,-825,-124,-132,-140,-124,-124,-135,-126,-130,-124,-107,-134,-67,-24,25,96,126,177,188,195,232,221,205,216,172,162,98,74,30,-32,-94,-142,-155,-163,-150,-162,-177,-176,-168,-161,-177,-179,-201,-194,-198,-209,-203,-211,-213,-214,-215,-230,-230,-230,-244,-226,-249,-258,-238,-256,-252,-259,-244,-255,-264,-259,-261,-274,-271,-283,-282,
839603380551488637:-263,-278,-285,-272,-276,-281,-269,-274,-294,-285,-281,-288,-286,-264,-276,-285,-268,-265,-267,-264,-261,-199,-151,-107,-105,-91,-121,-165,-237,-217,-221,-334,-355,-306,-222,553,1039,1037,557,-183,-872,-1381,-1581,-1393,-877,-174,-174,-151,-147,-166,-164,-147,-132,-146,-151,-143,-76,-34,36,62,117,163,199,225,209,239,229,224,198,175,133,81,47,
839603381113027098:-21,-77,-119,-135,-137,-138,-143,-135,-140,-123,-135,-130,-155,-146,-142,-155,-162,-168,-170,-166,-159,-178,-184,-170,-201,-188,-203,-213,-198,-207,-221,-201,-229,-231,-237,-237,-236,-252,-232,-251,-255,-264,-265,-243,-248,-256,-272,-279,-274,-282,-282,-286,-269,-270,-267,-286,-280,-265,-266,-275,-268,-264,-286,-221,-169,-121,-116,-134,-151,-200,-261,-260,-263,
839603381674565559:-372,-412,-373,-248,512,998,1004,532,-248,-921,-1438,-1621,-1422,-927,-207,-213,-207,-191,-188,-177,-180,-186,-179,-170,-164,-125,-50,11,50,102,128,160,182,189,222,204,204,186,157,121,94,34,-24,-65,-122,-131,-112,-112,-105,-126,-111,-105,-124,-119,-113,-113,-128,-122,-114,-126,-125,-143,-148,-150,-148,-145,-150,-147,-169,-161,-168,-172,-162,
839603382236104020:-170,-193,-187,-180,-193,-198,-207,-201,-201,-205,-209,-225,-213,-219,-217,-239,-236,-251,-236,-252,-253,-247,-243,-255,-270,-271,-279,-281,-271,-274,-265,-270,-211,-161,-139,-142,-126,-181,-213,-283,-271,-280,-373,-423,-386,-281,488,968,974,508,-265,-975,-1464,-1666,-1467,-946,-260,-241,-227,-225,-220,-218,-223,-213,-216,-204,-219,-147,-104,-52,17,58,93,
839603382797642481:120,155,158,177,182,165,151,132,79,60,8,-32,-77,-130,-129,-129,-124,-129,-115,-142,-119,-119,-111,-125,-116,-105,-134,-117,-122,-106,-123,-126,-126,-130,-115,-136,-113,-121,-135,-145,-121,-137,-150,-143,-141,-145,-144,-144,-156,-173,-156,-179,-166,-181,-193,-171,-197,-191,-190,-210,-213,-214,-207,-224,-206,-210,-220,-219,-248,-224,-244,-229,-248,
839603383359180942:-251,-201,-152,-110,-112,-135,-157,-201,-261,-267,-269,-375,-421,-397,-267,481,963,944,496,-291,-986,-1476,-1689,-1495,-960,-271,-287,-267,-277,-262,-270,-249,-253,-256,-243,-265,-181,-126,-72,-37,20,38,75,94,119,148,136,118,93,86,41,11,-36,-65,-135,-177,-185,-161,-155,-168,-167,-166,-164,-138,-147,-147,-132,-123,-132,-124,-142,-130,-132,
839603383920719403:-120,-111,-107,-132,-117,-122,-106,-133,-120,-123,-127,-111,-135,-135,-112,-120,-133,-117,-138,-137,-135,-141,-131,-139,-142,-137,-140,-146,-164,-158,-155,-154,-188,-179,-184,-171,-200,-201,-188,-199,-189,-200,-222,-172,-124,-72,-89,-103,-142,-180,-237,-255,-244,-363,-390,-360,-249,500,971,972,480,-283,-972,-1473,-1674,-1479,-965,-279,-274,-289,-291,-293,-269,
839603384482257864:-291,-276,-262,-272,-290,-217,-175,-106,-54,-21,25,49,63,104,89,95,73,66,52,6,-35,-79,-123,-160,-222,-216,-204,-197,-188,-207,-191,-202,-191,-197,-191,-186,-165,-172,-156,-169,-142,-162,-154,-155,-130,-146,-127,-135,-149,-142,-127,-114,-140,-123,-136,-123,-132,-110,-107,-132,-112,-112,-116,-114,-114,-135,-123,-130,-139,-135,-126,-128,-130,
839603385043796325:-129,-138,-142,-157,-139,-146,-168,-154,-174,-154,-172,-159,-127,-79,-50,-34,-50,-88,-142,-189,-209,-206,-321,-365,-331,-228,548,1002,986,522,-248,-950,-1455,-1653,-1474,-950,-276,-264,-266,-265,-277,-281,-282,-269,-266,-264,-271,-239,-157,-134,-80,-29,16,37,43,61,62,64,60,40,17,-27,-68,-101,-141,-205,-249,-254,-263,-261,-239,-245,-243,
839603385605334786:-245,-226,-231,-208,-219,-210,-206,-219,-202,-207,-205,-189,-192,-173,-174,-177,-177,-156,-174,-152,-161,-162,-157,-146,-150,-146,-143,-120,-140,-132,-116,-126,-114,-133,-110,-135,-110,-112,-108,-106,-106,-116,-109,-119,-136,-122,-121,-115,-123,-123,-136,-146,-146,-138,-70,-47,0,-5,0,-47,-97,-176,-157,-170,-267,-338,-298,-174,573,1048,1036,576,-196,
839603386166873247:-919,-1417,-1609,-1443,-936,-226,-235,-235,-251,-231,-236,-247,-241,-258,-245,-248,-210,-158,-100,-56,-30,1,25,60,65,83,81,47,43,-3,-24,-60,-117,-171,-220,-288,-279,-261,-264,-286,-256,-256,-277,-251,-248,-267,-249,-259,-242,-246,-233,-252,-248,-226,-241,-225,-234,-224,-220,-206,-210,-205,-182,-202,-183,-193,-181,-170,-160,-161,-172,-150,-159,
839603386728411708:-145,-154,-133,-133,-138,-134,-127,-138,-147,-132,-133,-121,-137,-123,-130,-129,-132,-114,-126,-129,-133,-120,-126,-76,-25,15,16,5,-30,-74,-142,-129,-120,-246,-278,-262,-158,613,1089,1089,598,-169,-851,-1386,-1569,-1377,-888,-193,-192,-204,-184,-209,-210,-209,-217,-212,-220,-227,-185,-134,-72,-38,20,33,71,95,84,85,76,65,31,2,-36,
839603387289950169:-69,-126,-158,-226,-272,-290,-291,-280,-265,-271,-280,-283,-270,-291,-287,-283,-267,-283,-273,-275,-275,-256,-250,-251,-263,-251,-258,-243,-256,-233,-236,-244,-224,-220,-227,-221,-208,-229,-195,-192,-211,-187,-191,-188,-196,-170,-165,-180,-185,-173,-152,-152,-165,-149,-161,-159,-130,-152,-134,-149,-130,-138,-137,-117,-118,-59,-29,6,37,15,-19,-54,-113,
839603387851488630:-126,-133,-223,-264,-215,-130,643,1123,1122,650,-128,-837,-1358,-1552,-1361,-839,-155,-164,-160,-159,-163,-162,-182,-169,-162,-177,-168,-129,-87,-33,20,54,88,101,115,134,119,131,109,88,32,-2,-41,-90,-141,-207,-247,-267,-262,-275,-272,-263,-266,-283,-263,-263,-282,-289,-275,-274,-264,-265,-277,-270,-281,-287,-291,-286,-290,-263,-288,-280,-267,
839603388413027091:-270,-253,-261,-270,-260,-254,-241,-256,-237,-252,-238,-231,-242,-234,-227,-230,-206,-209,-220,-220,-198,-210,-205,-188,-196,-170,-170,-165,-173,-175,-172,-171,-166,-149,-96,-49,-10,13,3,-36,-77,-126,-114,-140,-237,-276,-229,-123,653,1121,1120,632,-125,-815,-1337,-1536,-1347,-833,-137,-135,-121,-140,-137,-147,-149,-146,-145,-132,-158,-101,-45,-7,47,
839603388974565552:82,105,150,169,158,166,171,155,115,95,33,2,-47,-109,-157,-225,-213,-215,-218,-237,-250,-235,-259,-259,-262,-267,-260,-271,-254,-268,-256,-280,-284,-276,-278,-284,-288,-282,-269,-286,-284,-285,-280,-274,-271,-281,-276,-271,-273,-270,-277,-275,-266,-253,-250,-270,-270,-244,-247,-255,-258,-233,-244,-228,-236,-220,-222,-211,-208,-229,-202,-208,-191,
839603389536104013:-196,-210,-202,-137,-88,-38,-34,-43,-46,-119,-156,-156,-165,-271,-307,-258,-157,635,1104,1104,639,-136,-825,-1332,-1521,-1324,-827,-122,-114,-113,-108,-124,-106,-135,-135,-131,-112,-133,-79,-25,20,88,112,140,177,189,193,215,207,171,153,138,77,49,1,-48,-133,-169,-187,-188,-174,-204,-185,-205,-217,-210,-210,-228,-211,-239,-237,-241,-238,
839603390097642474:-241,-227,-256,-255,-264,-255,-253,-274,-264,-263,-262,-273,-265,-261,-286,-262,-283,-268,-274,-279,-273,-288,-267,-289,-269,-288,-283,-276,-282,-281,-281,-276,-254,-261,-258,-263,-258,-256,-257,-256,-252,-228,-233,-247,-228,-182,-130,-91,-68,-89,-98,-135,-211,-199,-182,-301,-348,-283,-176,590,1080,1082,606,-173,-861,-1351,-1543,-1371,-848,-131,-140,-129,-147,
839603390659180935:-140,-117,-118,-133,-122,-122,-112,-59,-9,44,72,138,152,177,203,211,221,212,222,186,153,107,66,19,-24,-84,-134,-151,-140,-160,-146,-152,-150,-152,-153,-171,-177,-189,-193,-179,-196,-204,-203,-187,-221,-207,-229,-229,-208,-228,-216,-238,-221,-254,-245,-245,-238,-248,-241,-246,-260,-257,-271,-269,-268,-271,-288,-276,-284,-280,-286,-293,-264,
839603391220719396:-273,-288,-283,-267,-267,-286,-280,-287,-275,-267,-282,-271,-272,-268,-202,-142,-122,-119,-118,-148,-186,-227,-225,-247,-353,-383,-345,-221,533,1031,1040,566,-196,-910,-1401,-1594,-1412,-875,-191,-175,-179,-180,-163,-146,-170,-154,-153,-136,-152,-88,-31,20,70,129,158,173,206,235,238,225,204,193,163,139,88,38,-26,-61,-111,-134,-131,-130,-140,
839603391782257857:-115,-144,-134,-123,-136,-149,-147,-142,-161,-148,-151,-171,-157,-172,-179,-158,-182,-171,-187,-190,-194,-189,-193,-198,-197,-205,-217,-228,-236,-230,-221,-237,-246,-240,-252,-256,-250,-246,-249,-249,-259,-253,-262,-271,-262,-269,-266,-260,-273,-282,-268,-288,-282,-293,-290,-280,-214,-157,-152,-138,-127,-166,-219,-284,-258,-268,-361,-421,-366,-268,518,983,985,
839603392343796318:508,-239,-932,-1453,-1638,-1429,-919,-221,-207,-206,-211,-191,-200,-187,-195,-196,-181,-167,-126,-60,3,55,88,139,156,189,187,204,196,182,166,147,117,80,29,-11,-66,-129,-129,-113,-119,-105,-125,-132,-123,-118,-109,-106,-134,-131,-133,-127,-142,-132,-122,-135,-127,-131,-138,-141,-148,-136,-142,-161,-155,-167,-162,-178,-184,-185,-190,-171,-189,
839603392905334779:-189,-207,-202,-220,-205,-201,-215,-218,-221,-238,-230,-233,-246,-227,-247,-247,-265,-258,-271,-266,-256,-253,-276,-277,-271,-226,-169,-143,-133,-136,-161,-233,-266,-279,-280,-382,-428,-390,-270,475,960,973,497,-277,-970,-1482,-1649,-1465,-965,-260,-260,-244,-239,-244,-252,-222,-244,-239,-218,-211,-161,-96,-66,10,58,76,115,149,162,176,180,167,135,
839603393466873240:110,79,55,2,-41,-81,-149,-156,-129,-145,-133,-144,-133,-128,-141,-131,-134,-124,-117,-135,-116,-135,-133,-123,-130,-127,-126,-106,-126,-114,-116,-130,-118,-125,-126,-118,-147,-150,-152,-147,-154,-136,-145,-147,-146,-156,-162,-162,-167,-175,-172,-196,-202,-189,-202,-194,-217,-200,-222,-231,-231,-213,-235,-222,-250,-234,-242,-202,-128,-129,-107,-135,-165,
839603394028411701:-209,-264,-261,-256,-363,-419,-372,-271,494,955,970,489,-271,-978,-1488,-1681,-1497,-991,-291,-270,-269,-263,-278,-273,-265,-266,-264,-266,-256,-203,-158,-90,-40,0,38,74,104,111,130,119,130,102,69,29,-6,-34,-91,-121,-196,-178,-184,-171,-174,-165,-148,-153,-155,-157,-157,-151,-133,-151,-147,-131,-132,-127,-141,-123,-124,-128,-111,-120,-127,
839603394589950162:-109,-119,-128,-111,-106,-131,-136,-109,-118,-123,-123,-125,-142,-134,-146,-121,-141,-135,-139,-142,-149,-139,-148,-166,-162,-151,-178,-185,-173,-186,-172,-200,-193,-204,-207,-190,-145,-103,-76,-78,-85,-124,-172,-221,-249,-231,-348,-408,-368,-251,509,976,969,506,-276,-973,-1476,-1665,-1483,-986,-271,-281,-275,-271,-271,-282,-272,-274,-287,-271,-281,-222,-176,
839603395151488623:-102,-57,-35,29,36,56,83,80,94,88,46,43,-10,-49,-87,-133,-187,-218,-227,-210,-200,-217,-195,-203,-211,-180,-195,-189,-192,-193,-189,-170,-156,-175,-155,-143,-159,-155,-156,-140,-149,-150,-139,-144,-125,-132,-136,-131,-140,-132,-136,-127,-114,-116,-124,-105,-107,-121,-128,-129,-114,-122,-111,-127,-120,-144,-125,-120,-138,-137,-141,-139,-147,
839603395713027084:-145,-159,-163,-144,-163,-97,-74,-44,-32,-47,-85,-117,-197,-185,-200,-300,-360,-316,-227,542,1020,1004,547,-249,-939,-1466,-1632,-1446,-953,-253,-258,-262,-254,-268,-264,-255,-278,-262,-262,-291,-209,-180,-129,-87,-38,-4,37,38,75,64,62,47,47,16,-17,-70,-116,-162,-207,-253,-269,-254,-248,-255,-261,-257,-239,-248,-246,-216,-238,-217,-224,
839603396274565545:-214,-200,-220,-199,-196,-187,-192,-198,-186,-180,-178,-171,-156,-163,-172,-152,-159,-159,-155,-151,-145,-123,-127,-124,-140,-119,-124,-130,-112,-109,-125,-116,-131,-107,-120,-112,-131,-130,-126,-116,-116,-128,-131,-117,-127,-135,-139,-86,-44,2,-6,-12,-55,-83,-161,-167,-158,-266,-307,-265,-159,601,1039,1056,570,-196,-911,-1426,-1601,-1411,-902,-210,-236,
839603396836104006:-221,-214,-232,-230,-247,-234,-240,-259,-250,-191,-162,-111,-71,-19,9,47,47,58,87,79,68,34,0,-35,-71,-127,-170,-230,-278,-276,-288,-263,-274,-281,-283,-274,-269,-271,-267,-262,-268,-268,-248,-253,-243,-227,-232,-242,-231,-213,-234,-216,-201,-199,-196,-192,-193,-199,-188,-179,-197,-183,-172,-166,-175,-169,-170,-150,-149,-161,-160,-134,-145,
839603397397642467:-149,-130,-146,-120,-127,-132,-123,-139,-130,-128,-117,-130,-130,-124,-117,-133,-72,-21,21,15,8,-13,-72,-123,-139,-127,-224,-296,-257,-136,612,1100,1086,608,-169,-869,-1375,-1569,-1366,-879,-162,-187,-194,-185,-189,-190,-208,-217,-205,-222,-217,-179,-112,-73,-19,26,32,66,84,104,96,99,85,56,25,-27,-52,-97,-156,-226,-287,-261,-289,
839603397959180928:-293,-272,-264,-274,-266,-271,-273,-282,-263,-275,-272,-276,-265,-268,-273,-281,-265,-278,-274,-246,-250,-242,-259,-262,-259,-241,-251,-246,-224,-220,-235,-227,-216,-197,-220,-192,-212,-202,-191,-194,-196,-193,-169,-162,-178,-152,-164,-172,-167,-138,-143,-160,-153,-150,-151,-145,-122,-128,-63,-10,18,33,15,-6,-55,-133,-133,-109,-215,-262,-234,-111,650,
839603398520719389:1117,1109,631,-112,-820,-1328,-1522,-1340,-838,-125,-153,-151,-153,-153,-141,-168,-165,-154,-184,-165,-111,-78,-22,18,45,78,106,140,139,139,133,115,100,47,27,-20,-93,-129,-196,-245,-240,-241,-256,-265,-263,-271,-264,-282,-276,-288,-278,-277,-282,-269,-287,-293,-282,-292,-280,-290,-290,-279,-284,-274,-262,-287,-261,-269,-270,-276,-268,-251,-261,
839603399082257850:-264,-264,-254,-231,-245,-231,-246,-222,-232,-222,-212,-229,-213,-207,-199,-216,-209,-195,-199,-194,-175,-193,-167,-163,-159,-162,-153,-113,-54,-20,8,-16,-25,-67,-126,-126,-134,-233,-277,-247,-111,640,1127,1127,653,-132,-813,-1332,-1522,-1342,-820,-107,-110,-135,-138,-138,-137,-142,-124,-144,-141,-135,-90,-34,21,40,109,112,145,166,190,178,184,
839603399643796311:148,135,103,54,16,-29,-89,-161,-222,-216,-214,-213,-240,-221,-244,-229,-237,-248,-245,-247,-267,-245,-258,-254,-272,-269,-274,-269,-268,-261,-286,-266,-288,-279,-272,-276,-275,-293,-268,-279,-293,-290,-290,-274,-266,-266,-276,-265,-278,-271,-254,-259,-260,-257,-262,-260,-260,-238,-254,-250,-225,-234,-210,-213,-213,-206,-202,-198,-202,-128,-82,-37,-36,
839603400205334772:-55,-68,-114,-162,-151,-172,-267,-291,-261,-140,619,1089,1096,629,-149,-820,-1334,-1521,-1350,-815,-136,-115,-110,-127,-116,-117,-126,-105,-126,-131,-125,-78,-21,35,78,112,147,173,187,221,201,193,202,151,148,88,36,-12,-59,-123,-179,-160,-163,-175,-171,-191,-200,-206,-198,-195,-222,-225,-205,-227,-230,-236,-227,-239,-253,-226,-251,-234,-244,
839603400766873233:-263,-268,-248,-268,-264,-260,-270,-270,-266,-270,-283,-266,-289,-266,-291,-288,-289,-277,-278,-266,-291,-278,-271,-278,-266,-260,-284,-266,-273,-271,-265,-248,-267,-253,-252,-244,-256,-241,-170,-131,-84,-61,-90,-111,-148,-217,-196,-189,-296,-342,-284,-176,596,1057,1047,604,-153,-862,-1363,-1570,-1357,-855,-144,-137,-146,-145,-150,-130,-128,-120,-139,-116,-137,
839603401328411694:-53,-22,35,79,125,160,198,219,234,242,216,204,194,172,136,66,25,-35,-68,-129,-142,-127,-153,-155,-135,-152,-170,-172,-158,-176,-177,-174,-172,-166,-181,-199,-198,-186,-213,-212,-194,-204,-230,-225,-209,-242,-222,-221,-232,-249,-235,-240,-252,-256,-267,-255,-268,-277,-278,-279,-265,-287,-279,-266,-283,-263,-264,-266,-291,-269,-268,-268,-289,
839603401889950155:-277,-267,-290,-275,-258,-263,-256,-200,-169,-118,-107,-133,-149,-198,-243,-245,-243,-349,-377,-338,-240,553,1019,1003,560,-203,-914,-1402,-1606,-1415,-883,-185,-170,-182,-180,-166,-181,-149,-155,-153,-159,-158,-77,-46,5,63,124,137,194,213,218,210,231,215,204,174,127,73,43,-5,-54,-120,-127,-128,-110,-138,-110,-112,-121,-125,-122,-146,-144,
839603402451488616:-125,-133,-131,-155,-142,-166,-145,-158,-158,-175,-164,-169,-183,-171,-188,-198,-195,-198,-206,-221,-198,-221,-218,-210,-216,-231,-241,-237,-252,-240,-259,-245,-240,-259,-273,-259,-261,-276,-257,-281,-273,-288,-272,-273,-275,-279,-283,-293,-282,-207,-162,-142,-138,-135,-159,-204,-262,-278,-258,-374,-427,-363,-253,503,969,989,515,-257,-947,-1463,-1625,-1439,-937,
839603403013027077:-234,-231,-222,-227,-205,-205,-190,-187,-205,-183,-192,-120,-80,-11,25,90,115,149,177,186,200,194,188,167,146,112,73,31,-16,-79,-133,-118,-123,-128,-120,-129,-108,-131,-116,-105,-115,-129,-113,-122,-130,-123,-112,-122,-120,-123,-117,-125,-122,-138,-144,-148,-163,-154,-154,-168,-165,-152,-170,-157,-167,-171,-198,-199,-184,-196,-192,-217,-204,
839603403574565538:-203,-202,-205,-234,-228,-234,-236,-223,-243,-245,-256,-250,-239,-242,-271,-248,-264,-274,-219,-171,-141,-110,-150,-175,-231,-291,-289,-282,-379,-421,-381,-268,480,972,954,486,-275,-973,-1495,-1659,-1483,-968,-269,-271,-254,-259,-239,-237,-232,-228,-250,-245,-219,-185,-99,-47,1,51,74,93,144,161,163,147,149,122,107,73,46,7,-64,-116,-146,
839603404136103999:-155,-134,-136,-129,-135,-142,-129,-128,-132,-141,-135,-137,-110,-115,-133,-113,-113,-114,-114,-129,-116,-107,-118,-132,-137,-121,-139,-128,-125,-146,-142,-135,-145,-155,-141,-158,-145,-143,-149,-153,-154,-153,-164,-177,-166,-169,-192,-184,-188,-183,-200,-199,-215,-215,-229,-223,-229,-229,-245,-227,-190,-147,-103,-95,-102,-150,-191,-269,-269,-270,-379,-407,-377,
839603404697642460:-265,475,973,961,471,-271,-991,-1500,-1670,-1485,-969,-267,-289,-279,-270,-266,-288,-275,-261,-269,-254,-254,-198,-159,-89,-34,-1,38,67,102,120,112,121,107,84,65,32,-19,-59,-108,-130,-185,-191,-198,-186,-180,-160,-170,-166,-171,-154,-157,-164,-138,-143,-140,-138,-139,-145,-134,-126,-118,-122,-119,-115,-118,-131,-114,-111,-112,-106,-122,-134,
839603405259180921:-130,-118,-122,-118,-112,-127,-127,-123,-142,-116,-121,-139,-131,-140,-130,-140,-139,-159,-154,-145,-173,-162,-159,-185,-186,-167,-182,-199,-191,-146,-103,-67,-69,-73,-109,-170,-237,-231,-242,-333,-399,-360,-248,512,975,992,512,-265,-975,-1464,-1659,-1489,-977,-287,-264,-280,-262,-291,-269,-284,-280,-284,-292,-293,-226,-157,-127,-79,-26,-3,44,73,84,
839603405820719382:81,79,83,42,32,-14,-44,-98,-126,-176,-225,-227,-215,-219,-233,-201,-202,-211,-216,-189,-202,-190,-193,-194,-188,-183,-178,-167,-170,-171,-152,-148,-163,-152,-137,-132,-125,-135,-137,-124,-124,-139,-123,-118,-124,-108,-122,-122,-110,-123,-122,-112,-114,-121,-109,-114,-137,-115,-113,-129,-131,-126,-117,-132,-144,-127,-157,-157,-138,-153,-150,-86,-66,
839603406382257843:-17,-32,-44,-57,-109,-192,-199,-196,-296,-340,-307,-199,539,1028,1027,541,-226,-920,-1443,-1626,-1454,-942,-254,-244,-242,-256,-247,-275,-276,-260,-271,-282,-269,-218,-159,-111,-57,-22,5,28,47,59,72,71,63,23,4,-19,-58,-102,-154,-202,-268,-270,-255,-267,-253,-248,-258,-261,-259,-232,-250,-223,-244,-225,-223,-230,-216,-219,-204,-198,-196,
839603406943796304:-186,-189,-194,-194,-179,-178,-187,-166,-165,-165,-170,-152,-158,-145,-144,-135,-136,-139,-123,-147,-135,-115,-113,-138,-115,-118,-136,-136,-106,-106,-113,-112,-105,-115,-127,-137,-135,-139,-134,-117,-70,-38,-7,14,0,-37,-74,-153,-156,-164,-260,-299,-257,-155,599,1048,1056,598,-191,-896,-1402,-1590,-1414,-892,-222,-205,-210,-205,-229,-243,-234,-246,-249,
839603407505334765:-237,-255,-180,-129,-82,-56,-6,13,39,60,88,77,85,68,46,-4,-42,-87,-118,-182,-217,-278,-278,-266,-271,-287,-261,-281,-265,-263,-279,-258,-256,-264,-264,-247,-248,-268,-242,-235,-247,-241,-237,-228,-228,-216,-212,-222,-204,-196,-204,-204,-188,-193,-190,-186,-192,-186,-179,-155,-172,-156,-157,-162,-166,-140,-145,-136,-129,-133,-150,-146,-143,
839603408066873226:-138,-126,-130,-127,-132,-124,-108,-105,-120,-62,-16,11,24,5,-5,-67,-118,-124,-126,-231,-273,-237,-123,638,1087,1110,630,-155,-836,-1369,-1547,-1384,-859,-178,-163,-163,-170,-176,-185,-205,-186,-210,-193,-215,-161,-99,-55,-4,10,51,74,98,99,111,102,67,55,41,-11,-53,-117,-144,-201,-285,-273,-279,-288,-279,-276,-265,-283,-283,-265,
839603408628411687:-285,-266,-269,-284,-264,-271,-264,-278,-280,-263,-268,-255,-270,-277,-260,-258,-245,-251,-256,-240,-256,-248,-233,-235,-241,-237,-229,-218,-222,-202,-192,-203,-185,-200,-176,-189,-176,-185,-161,-166,-179,-173,-145,-161,-166,-144,-161,-140,-141,-140,-120,-65,-36,5,22,1,-17,-61,-127,-135,-124,-214,-264,-230,-115,644,1112,1128,654,-114,-822,-1338,-1542,
839603409189950148:-1345,-817,-129,-141,-147,-139,-130,-152,-164,-165,-170,-149,-168,-123,-67,-23,17,55,107,118,127,151,156,126,132,93,57,25,-32,-65,-115,-184,-253,-247,-247,-244,-248,-261,-273,-250,-254,-279,-266,-266,-259,-271,-260,-290,-290,-278,-268,-287,-290,-285,-291,-281,-268,-291,-285,-268,-264,-267,-256,-260,-271,-269,-253,-271,-260,-255,-261,-232,-254,
839603409751488609:-238,-228,-232,-241,-218,-237,-217,-226,-223,-192,-208,-209,-196,-178,-191,-188,-183,-174,-187,-172,-111,-39,-30,-8,-17,-39,-90,-152,-147,-134,-225,-267,-234,-140,651,1126,1118,642,-115,-824,-1320,-1531,-1330,-819,-134,-128,-117,-108,-125,-122,-124,-118,-130,-137,-143,-74,-44,22,60,91,148,162,184,180,194,164,155,145,102,67,6,-43,-84,
839603410313027070:-157,-199,-220,-203,-211,-223,-223,-229,-218,-223,-229,-226,-251,-257,-244,-247,-247,-250,-260,-277,-257,-258,-257,-279,-282,-286,-276,-272,-276,-285,-279,-281,-278,-278,-277,-276,-277,-265,-275,-278,-275,-269,-275,-256,-277,-275,-246,-265,-251,-245,-265,-231,-235,-254,-247,-234,-238,-240,-215,-232,-219,-225,-158,-86,-70,-31,-51,-87,-139,-177,-172,-171,-269,
839603410874565531:-306,-265,-144,604,1091,1074,628,-132,-824,-1342,-1533,-1342,-822,-142,-128,-111,-118,-121,-132,-113,-132,-134,-109,-117,-74,-25,34,91,117,171,198,207,231,233,212,186,167,146,90,70,0,-44,-90,-154,-169,-158,-176,-177,-190,-188,-177,-203,-203,-196,-190,-206,-219,-210,-210,-224,-235,-236,-241,-239,-225,-236,-244,-245,-261,-251,-258,-267,-272,
839603411436103992:-273,-272,-271,-282,-264,-271,-270,-278,-263,-289,-289,-289,-272,-270,-276,-276,-273,-283,-284,-265,-285,-276,-283,-277,-277,-257,-245,-267,-251,-257,-234,-199,-124,-106,-80,-83,-108,-174,-207,-215,-198,-305,-339,-315,-203,584,1053,1048,590,-181,-875,-1376,-1555,-1382,-852,-167,-137,-134,-148,-139,-126,-148,-128,-133,-121,-116,-61,-9,43,86,125,173,176,
839603411997642453:223,234,238,224,203,188,147,119,83,23,-22,-58,-144,-126,-132,-136,-127,-151,-131,-159,-147,-142,-164,-163,-156,-156,-186,-179,-172,-170,-200,-200,-186,-209,-214,-197,-205,-214,-221,-230,-238,-228,-245,-240,-235,-256,-257,-266,-244,-245,-262,-275,-252,-256,-275,-283,-278,-268,-281,-290,-279,-275,-266,-285,-279,-294,-274,-270,-266,-290,-267,-263,-284,
839603412559180914:-228,-172,-126,-108,-118,-167,-190,-269,-242,-246,-348,-406,-359,-235,543,1000,1016,550,-234,-909,-1423,-1618,-1403,-895,-205,-206,-177,-197,-164,-188,-185,-177,-165,-174,-161,-95,-41,10,49,99,152,165,192,219,225,230,204,174,148,118,81,37,-10,-63,-124,-115,-120,-114,-127,-119,-113,-126,-136,-133,-136,-145,-125,-127,-127,-144,-158,-160,-158,
839603413120719375:-165,-154,-173,-161,-180,-181,-160,-169,-180,-171,-190,-198,-188,-187,-204,-197,-227,-218,-218,-225,-217,-233,-231,-229,-248,-258,-246,-245,-260,-261,-253,-257,-280,-263,-264,-283,-266,-261,-269,-277,-275,-274,-234,-183,-130,-132,-138,-173,-212,-281,-266,-285,-365,-430,-387,-266,509,959,970,519,-250,-941,-1464,-1644,-1468,-955,-232,-230,-238,-239,-210,-222,-225,
839603413682257836:-204,-195,-212,-193,-152,-93,-31,32,75,111,133,168,182,202,175,168,176,141,97,56,29,-30,-74,-126,-136,-123,-122,-122,-110,-130,-127,-125,-126,-109,-105,-126,-111,-131,-136,-109,-110,-115,-118,-124,-142,-146,-129,-139,-151,-151,-136,-142,-152,-140,-145,-147,-149,-175,-185,-180,-180,-195,-198,-179,-205,-213,-207,-200,-198,-207,-215,-231,-235,
839603414243796297:-225,-237,-237,-225,-252,-260,-237,-244,-244,-265,-249,-220,-162,-116,-131,-122,-177,-211,-269,-281,-276,-384,-440,-399,-271,474,972,962,488,-290,-960,-1493,-1688,-1479,-964,-270,-279,-278,-261,-265,-263,-260,-258,-251,-255,-229,-168,-113,-57,-18,30,72,106,132,136,139,158,137,116,86,62,18,0,-61,-97,-174,-152,-151,-163,-136,-149,-130,-145,
839603414805334758:-142,-129,-131,-117,-125,-141,-131,-133,-138,-107,-125,-127,-124,-135,-112,-117,-105,-122,-134,-137,-113,-126,-131,-141,-125,-132,-148,-128,-125,-132,-151,-133,-144,-154,-144,-162,-150,-165,-185,-178,-175,-188,-199,-180,-193,-214,-197,-200,-200,-223,-218,-221,-225,-188,-129,-114,-86,-92,-145,-184,-262,-272,-253,-365,-415,-383,-281,486,961,948,479,-285,-971,
839603415366873219:-1489,-1671,-1476,-965,-267,-275,-291,-290,-271,-280,-283,-286,-271,-263,-279,-203,-163,-118,-48,-22,26,52,88,93,103,114,93,76,62,35,-13,-60,-103,-158,-205,-209,-182,-192,-190,-173,-191,-189,-171,-164,-167,-170,-150,-145,-147,-141,-146,-153,-136,-141,-128,-125,-135,-119,-137,-127,-130,-109,-106,-132,-121,-126,-110,-121,-109,-105,-130,-128,-137,
839603415928411680:-120,-128,-134,-136,-132,-143,-125,-150,-149,-138,-145,-148,-160,-151,-161,-161,-177,-167,-178,-168,-175,-198,-132,-82,-43,-57,-63,-106,-170,-213,-234,-217,-349,-373,-345,-225,533,981,1001,510,-261,-970,-1469,-1648,-1464,-981,-256,-269,-279,-289,-263,-279,-281,-281,-283,-277,-290,-232,-171,-122,-62,-29,15,23,53,83,87,84,64,39,26,-13,-45,
839603416489950141:-92,-154,-194,-248,-254,-238,-236,-214,-215,-232,-218,-223,-194,-208,-193,-190,-185,-195,-195,-169,-177,-171,-175,-171,-161,-159,-169,-153,-138,-161,-156,-132,-130,-150,-126,-141,-120,-113,-128,-121,-119,-112,-122,-125,-105,-124,-110,-131,-124,-113,-128,-129,-115,-113,-135,-139,-129,-120,-136,-130,-131,-140,-138,-158,-93,-49,-25,-5,-32,-46,-99,-165,-183,
839603417051488602:-176,-300,-346,-288,-200,574,1021,1037,540,-208,-925,-1452,-1618,-1458,-935,-234,-229,-246,-255,-239,-244,-260,-258,-279,-273,-255,-204,-150,-106,-76,-15,9,37,63,77,73,78,66,46,14,-34,-68,-116,-180,-213,-276,-273,-257,-257,-277,-274,-251,-265,-261,-262,-249,-235,-233,-237,-231,-240,-227,-208,-212,-217,-193,-202,-205,-211,-192,-178,-198,-183,
839603417613027063:-180,-173,-169,-153,-166,-148,-160,-145,-156,-151,-150,-150,-126,-123,-124,-122,-141,-125,-138,-121,-133,-130,-136,-124,-122,-129,-114,-128,-130,-129,-135,-119,-112,-66,-4,-3,22,0,-42,-91,-128,-151,-137,-262,-291,-259,-167,609,1056,1058,600,-180,-884,-1398,-1594,-1389,-898,-210,-209,-199,-216,-224,-224,-235,-236,-220,-223,-225,-197,-128,-85,-47,2,
839603418174565524:15,46,66,68,69,64,52,47,0,-42,-83,-117,-184,-216,-286,-283,-266,-287,-279,-271,-289,-279,-263,-270,-259,-270,-261,-271,-276,-259,-248,-256,-250,-257,-240,-252,-229,-226,-247,-229,-225,-226,-226,-211,-226,-222,-212,-196,-207,-196,-174,-195,-185,-177,-166,-177,-175,-172,-162,-144,-137,-145,-142,-148,-144,-145,-137,-126,-129,-126,-119,-116,-114,
839603418736103985:-123,-120,-68,-10,25,35,20,-15,-48,-106,-123,-112,-245,-284,-239,-121,638,1105,1087,630,-133,-856,-1371,-1553,-1362,-854,-164,-147,-163,-167,-161,-177,-169,-171,-203,-181,-184,-140,-104,-41,3,32,72,97,111,98,128,101,75,70,36,-11,-43,-88,-152,-205,-254,-279,-257,-258,-283,-282,-271,-278,-263,-265,-294,-273,-284,-267,-272,-275,-291,
839603419297642446:-272,-264,-266,-276,-277,-284,-259,-275,-277,-249,-253,-244,-267,-260,-260,-228,-250,-227,-223,-220,-213,-211,-209,-207,-204,-204,-189,-183,-194,-191,-196,-192,-166,-168,-157,-159,-150,-158,-152,-162,-148,-150,-142,-152,-93,-31,0,26,7,-31,-60,-117,-127,-137,-222,-273,-233,-125,651,1117,1102,638,-122,-813,-1346,-1530,-1352,-841,-131,-129,-145,-136,-152,
839603419859180907:-130,-133,-133,-155,-148,-142,-104,-45,-4,31,62,103,144,148,157,167,140,139,109,58,29,0,-75,-131,-178,-220,-245,-252,-259,-246,-252,-251,-255,-274,-271,-277,-255,-283,-263,-275,-287,-269,-261,-277,-278,-283,-284,-283,-277,-291,-269,-263,-270,-287,-273,-279,-271,-264,-259,-271,-251,-278,-258,-242,-248,-243,-235,-247,-231,-228,-232,-229,-213,
839603420420719368:-225,-228,-223,-207,-223,-199,-192,-205,-206,-196,-174,-174,-177,-113,-52,-28,-5,-7,-48,-99,-134,-143,-147,-260,-290,-248,-129,630,1093,1098,654,-127,-816,-1341,-1536,-1329,-808,-129,-135,-130,-115,-111,-108,-131,-119,-114,-141,-129,-78,-16,15,67,111,148,156,172,197,197,197,184,143,115,76,23,-31,-77,-119,-196,-183,-209,-204,-216,-201,
839603420982257829:-209,-227,-231,-226,-228,-230,-247,-241,-244,-242,-248,-252,-269,-258,-247,-261,-274,-263,-279,-285,-284,-274,-284,-289,-290,-268,-266,-268,-293,-287,-278,-272,-271,-290,-273,-271,-270,-266,-280,-278,-257,-276,-249,-265,-258,-265,-236,-242,-247,-247,-249,-219,-219,-233,-222,-157,-107,-80,-47,-69,-102,-134,-173,-180,-177,-290,-306,-275,-162,610,1075,1078,609,
839603421543796290:-139,-832,-1348,-1544,-1337,-824,-131,-142,-133,-116,-124,-113,-122,-130,-119,-124,-125,-64,-24,26,76,139,165,189,207,214,233,207,212,179,143,123,76,8,-52,-95,-157,-167,-147,-156,-163,-181,-164,-183,-192,-200,-182,-189,-210,-202,-210,-220,-225,-212,-207,-215,-239,-242,-236,-248,-253,-255,-263,-263,-256,-254,-253,-256,-250,-268,-266,-276,-280,
839603422105334751:-269,-267,-279,-267,-283,-289,-292,-274,-280,-288,-286,-288,-283,-288,-264,-281,-277,-274,-279,-265,-265,-248,-245,-268,-208,-134,-104,-97,-103,-119,-168,-231,-214,-222,-322,-348,-303,-215,548,1042,1056,579,-176,-892,-1397,-1579,-1380,-872,-163,-145,-142,-161,-157,-132,-133,-127,-143,-147,-118,-83,-35,32,68,132,160,174,210,230,238,239,210,178,159,
839603422666873212:141,87,34,-6,-56,-140,-119,-139,-145,-123,-128,-145,-127,-135,-162,-147,-142,-152,-149,-157,-180,-171,-188,-178,-182,-201,-182,-209,-189,-213,-220,-199,-210,-213,-222,-224,-238,-242,-238,-228,-254,-250,-249,-263,-265,-270,-248,-249,-262,-282,-270,-273,-285,-270,-274,-277,-280,-280,-270,-274,-283,-284,-269,-284,-268,-265,-229,-176,-130,-112,-118,-171,-219,
839603423228411673:-248,-252,-263,-357,-394,-351,-256,520,985,993,524,-217,-936,-1441,-1625,-1419,-911,-214,-194,-198,-191,-173,-195,-178,-191,-185,-176,-170,-117,-58,18,43,108,125,153,201,218,216,225,205,188,149,123,70,37,-5,-78,-118,-133,-119,-120,-105,-126,-128,-135,-118,-123,-140,-113,-117,-130,-143,-130,-133,-154,-132,-138,-163,-157,-162,-152,-166,-155,
839603423789950134:-159,-159,-167,-173,-195,-186,-178,-203,-192,-197,-193,-210,-200,-230,-211,-237,-237,-226,-223,-233,-245,-240,-249,-267,-261,-264,-257,-255,-254,-260,-286,-261,-271,-278,-276,-231,-171,-139,-138,-142,-158,-232,-287,-277,-264,-368,-433,-382,-265,506,975,968,489,-274,-972,-1478,-1643,-1469,-941,-255,-247,-239,-234,-227,-235,-223,-234,-227,-209,-220,-161,-104,-44,
839603424351488595:22,49,94,136,172,188,185,184,179,167,136,101,63,4,-40,-77,-124,-128,-127,-116,-115,-117,-134,-112,-128,-113,-135,-121,-121,-131,-132,-105,-128,-107,-121,-121,-138,-139,-141,-128,-120,-126,-131,-153,-129,-140,-152,-134,-166,-159,-146,-149,-173,-176,-158,-183,-185,-170,-182,-187,-192,-216,-217,-213,-209,-204,-220,-233,-222,-218,-239,-254,-236,
839603424913027056:-232,-250,-256,-249,-215,-142,-115,-116,-136,-159,-199,-286,-276,-275,-397,-438,-394,-274,493,947,953,495,-292,-983,-1492,-1683,-1491,-973,-285,-282,-268,-260,-258,-262,-254,-243,-245,-240,-256,-202,-116,-73,-18,25,67,99,109,121,132,126,122,128,99,59,19,-38,-77,-109,-169,-177,-162,-157,-155,-140,-134,-139,-141,-135,-137,-126,-125,-139,-127,
839603425474565517:-139,-119,-114,-138,-117,-135,-112,-123,-126,-110,-124,-125,-119,-108,-117,-108,-126,-130,-143,-119,-142,-141,-132,-133,-141,-134,-146,-159,-152,-164,-151,-161,-182,-157,-171,-179,-173,-184,-175,-186,-201,-215,-214,-202,-213,-214,-166,-131,-90,-68,-92,-147,-199,-250,-258,-262,-362,-423,-358,-275,497,969,952,500,-268,-986,-1490,-1680,-1492,-983,-284,-271,-268,
839603426036103978:-284,-272,-288,-267,-277,-283,-273,-281,-207,-165,-114,-74,-29,32,45,81,83,104,109,76,63,55,19,-10,-50,-111,-152,-212,-221,-213,-207,-210,-196,-189,-189,-166,-173,-163,-175,-169,-150,-169,-165,-144,-133,-139,-136,-151,-140,-136,-132,-142,-138,-125,-127,-131,-118,-137,-133,-115,-133,-109,-132,-129,-120,-120,-135,-120,-132,-123,-123,-131,-143,
839603426597642439:-142,-148,-126,-146,-138,-160,-138,-144,-146,-150,-166,-159,-170,-178,-175,-135,-89,-37,-52,-46,-100,-149,-197,-199,-206,-335,-365,-348,-240,542,1001,1006,513,-248,-961,-1466,-1667,-1459,-974,-272,-281,-258,-257,-261,-265,-268,-262,-276,-263,-269,-235,-177,-130,-65,-43,-8,42,60,55,67,75,74,29,25,-22,-53,-98,-133,-187,-255,-250,-256,-226,
839603427159180900:-241,-246,-236,-238,-228,-212,-219,-217,-194,-218,-201,-187,-192,-200,-172,-184,-186,-159,-163,-152,-152,-166,-145,-137,-144,-139,-155,-140,-135,-129,-122,-124,-117,-118,-122,-118,-127,-112,-109,-121,-106,-106,-112,-120,-131,-122,-110,-130,-124,-115,-123,-139,-122,-137,-136,-138,-143,-70,-29,-4,-17,-13,-50,-100,-176,-169,-160,-270,-342,-276,-182,558,1040,
839603427720719361:1050,561,-217,-902,-1438,-1628,-1442,-932,-226,-237,-250,-252,-243,-251,-263,-265,-259,-258,-270,-214,-145,-113,-65,-14,3,26,49,75,86,73,65,25,3,-21,-75,-106,-156,-221,-264,-259,-272,-277,-281,-255,-276,-262,-244,-251,-242,-249,-231,-232,-245,-240,-226,-216,-225,-212,-205,-216,-198,-192,-199,-195,-198,-194,-170,-167,-165,-178,-167,-174,-154,
839603428282257822:-146,-170,-160,-155,-153,-133,-127,-139,-123,-131,-121,-136,-141,-126,-113,-136,-109,-107,-134,-113,-111,-124,-107,-120,-132,-106,-66,-30,7,39,21,-22,-79,-145,-131,-150,-239,-284,-255,-143,622,1075,1090,598,-169,-875,-1376,-1572,-1390,-871,-200,-191,-190,-192,-217,-207,-229,-218,-210,-224,-237,-166,-122,-94,-26,12,48,66,90,84,77,82,76,
839603428843796283:47,28,-28,-68,-119,-153,-237,-267,-272,-282,-268,-278,-281,-292,-278,-268,-265,-288,-279,-271,-275,-257,-275,-276,-277,-273,-271,-244,-254,-249,-247,-237,-239,-248,-237,-212,-216,-210,-218,-211,-199,-196,-210,-204,-196,-173,-198,-194,-175,-169,-169,-150,-159,-166,-156,-153,-148,-135,-141,-138,-131,-141,-123,-142,-119,-121,-128,-121,-50,-29,18,20,15,
839603429405334744:0,-62,-123,-127,-107,-216,-263,-225,-116,648,1118,1119,642,-141,-849,-1355,-1545,-1353,-849,-146,-143,-166,-161,-161,-162,-179,-171,-171,-195,-203,-144,-75,-39,12,26,75,103,111,134,126,116,103,65,51,8,-28,-99,-135,-217,-274,-249,-259,-271,-266,-282,-275,-281,-289,-262,-278,-288,-292,-287,-269,-275,-276,-288,-276,-284,-271,-275,-271,-264,
839603429966873205:-282,-253,-265,-275,-271,-271,-264,-268,-239,-235,-229,-233,-226,-229,-232,-219,-223,-214,-230,-201,-214,-209,-207,-203,-197,-200,-187,-182,-164,-185,-161,-153,-158,-148,-153,-164,-134,-98,-34,0,19,-5,-32,-75,-138,-133,-128,-238,-266,-242,-110,639,1107,1129,629,-118,-815,-1342,-1523,-1350,-833,-130,-113,-140,-133,-124,-130,-135,-142,-144,-159,-146,-89,
839603430528411666:-37,4,39,68,109,131,162,167,157,161,144,125,83,50,-10,-56,-94,-155,-223,-224,-222,-244,-225,-231,-259,-254,-267,-246,-264,-258,-251,-268,-281,-273,-269,-260,-273,-284,-289,-293,-281,-290,-282,-294,-282,-267,-285,-277,-271,-273,-280,-283,-284,-280,-262,-271,-250,-264,-251,-262,-247,-252,-250,-249,-237,-225,-226,-229,-226,-216,-228,-206,-199,
839603431089950127:-191,-209,-209,-193,-182,-184,-132,-67,-24,-22,-41,-45,-106,-148,-159,-157,-256,-297,-244,-123,642,1091,1092,647,-136,-812,-1333,-1515,-1332,-807,-116,-129,-109,-114,-133,-117,-127,-123,-109,-130,-113,-57,-22,20,81,112,158,163,193,191,196,203,189,167,131,75,37,1,-54,-122,-172,-185,-186,-198,-183,-199,-220,-207,-219,-208,-212,-214,-228,
839603431651488588:-228,-249,-248,-243,-232,-240,-264,-267,-259,-259,-269,-279,-265,-267,-267,-286,-279,-276,-269,-273,-290,-282,-271,-285,-271,-278,-271,-281,-286,-276,-275,-265,-256,-264,-271,-253,-268,-249,-271,-248,-260,-242,-236,-232,-242,-230,-223,-231,-166,-119,-66,-50,-60,-105,-156,-195,-178,-174,-302,-329,-291,-176,580,1072,1068,604,-165,-855,-1371,-1540,-1362,-836,-149,
839603432213027049:-141,-126,-130,-134,-141,-115,-134,-118,-124,-116,-51,-7,47,83,120,163,193,198,232,241,213,217,195,144,105,77,33,-34,-76,-138,-156,-136,-155,-164,-168,-165,-169,-174,-176,-189,-195,-179,-182,-182,-205,-206,-220,-220,-201,-207,-235,-213,-228,-249,-251,-226,-237,-238,-254,-248,-253,-270,-263,-264,-259,-261,-257,-261,-272,-287,-287,-271,-293,
839603432774565510:-272,-277,-283,-287,-292,-281,-279,-272,-274,-274,-261,-258,-278,-274,-272,-255,-270,-201,-154,-115,-96,-98,-136,-172,-240,-243,-224,-333,-385,-311,-218,565,1032,1042,550,-202,-903,-1407,-1591,-1392,-860,-176,-161,-176,-153,-162,-159,-149,-133,-143,-132,-136,-69,-36,11,73,112,145,184,224,231,222,221,215,181,167,139,89,32,-23,-61,-123,-120,
839603433336103971:-139,-126,-144,-128,-134,-135,-151,-143,-150,-156,-162,-147,-150,-156,-161,-179,-184,-188,-179,-179,-176,-187,-199,-191,-210,-194,-223,-221,-229,-227,-211,-214,-228,-246,-228,-233,-254,-242,-245,-260,-257,-253,-268,-269,-276,-265,-275,-285,-265,-276,-273,-291,-288,-292,-270,-264,-267,-289,-280,-235,-164,-146,-116,-141,-158,-216,-267,-279,-253,-369,-422,-374,-237,
839603433897642432:510,979,1007,538,-236,-943,-1427,-1615,-1445,-930,-214,-210,-203,-196,-203,-186,-197,-191,-195,-179,-164,-123,-68,-5,60,104,116,150,174,215,202,205,205,164,137,115,63,19,-28,-59,-127,-112,-122,-118,-132,-115,-135,-127,-107,-129,-110,-132,-123,-117,-118,-136,-118,-134,-136,-134,-148,-134,-132,-154,-159,-154,-158,-179,-169,-160,-163,-176,-176,
839603434459180893:-198,-195,-184,-192,-191,-203,-224,-204,-216,-220,-234,-244,-240,-249,-240,-235,-234,-250,-245,-248,-255,-259,-249,-276,-282,-281,-273,-281,-230,-167,-126,-118,-147,-184,-208,-290,-273,-290,-390,-432,-392,-286,496,975,956,497,-254,-965,-1487,-1669,-1467,-947,-248,-258,-240,-238,-234,-226,-217,-233,-212,-209,-217,-152,-106,-35,1,64,79,112,143,162,183,
839603435020719354:161,176,157,136,87,61,16,-39,-104,-139,-143,-152,-138,-124,-141,-133,-127,-129,-129,-127,-119,-115,-125,-134,-108,-131,-124,-119,-117,-125,-129,-111,-133,-127,-117,-138,-133,-124,-122,-133,-153,-146,-151,-149,-144,-155,-154,-163,-155,-184,-178,-171,-175,-186,-177,-203,-194,-193,-208,-224,-211,-205,-233,-220,-237,-245,-243,-229,-240,-246,-179,-137,-121,
839603435582257815:-104,-137,-166,-218,-281,-278,-268,-375,-425,-375,-280,499,963,966,495,-280,-984,-1494,-1684,-1474,-965,-278,-279,-274,-279,-259,-261,-268,-248,-248,-256,-239,-205,-124,-97,-22,5,64,86,107,120,130,139,108,118,73,35,3,-17,-71,-128,-183,-160,-159,-170,-157,-153,-167,-139,-147,-132,-129,-134,-125,-143,-125,-135,-124,-127,-135,-129,-138,-129,
839603436143796276:-121,-132,-109,-107,-129,-126,-134,-113,-114,-116,-123,-124,-135,-138,-125,-133,-148,-132,-128,-153,-136,-135,-160,-159,-157,-152,-170,-165,-174,-181,-179,-180,-199,-185,-194,-212,-212,-213,-211,-150,-112,-83,-70,-75,-112,-178,-226,-248,-234,-350,-415,-350,-245,506,967,985,487,-269,-961,-1500,-1661,-1491,-978,-270,-266,-266,-278,-275,-294,-287,-273,-264,-291,
839603436705334737:-285,-232,-172,-128,-61,-17,29,55,64,73,101,107,85,71,33,19,-45,-68,-130,-164,-208,-205,-210,-211,-211,-198,-185,-181,-200,-177,-196,-182,-183,-173,-166,-157,-156,-142,-145,-156,-157,-151,-131,-137,-129,-148,-126,-142,-129,-134,-126,-112,-134,-123,-110,-135,-127,-109,-120,-118,-134,-135,-110,-124,-125,-130,-114,-119,-122,-135,-145,-140,-146,
